1602171700.00
64.000000
-0.00
-0.00
-0.00
-0.00
-0.00
-0.00
-0.00
-0.00
-0.00
-0.01
-0.00
0.00
0.01
0.01
-0.00
-0.03
-0.05
-0.05
-0.00
0.13
0.36
0.66
1.01
1.37
1.72
2.06
2.40
2.77
3.24
3.80
4.42
5.06
5.66
6.20
6.68
7.15
7.64
8.31
9.14
10.09
11.04
11.88
12.56
13.14
13.76
14.58
15.96
17.91
20.32
22.90
25.38
27.58
29.57
31.68
34.20
37.81
42.54
48.15
54.10
59.83
64.97
69.58
74.14
79.19
85.71
93.76
103.00
112.62
121.73
129.77
136.75
144.29
150.58
157.77
166.64
177.95
191.79
206.97
220.57
228.25
225.36
208.37
176.87
132.76
80.05
23.07
-34.94
-92.44
-149.16
-205.23
-260.49
-313.74
-363.87
-409.83
-450.91
-486.50
-515.74
-537.23
-549.22
-550.03
-538.35
-514.18
-478.64
-433.83
-382.38
-326.92
-269.72
-212.47
-156.50
-102.71
-52.09
-5.57
35.97
71.86
101.85
126.06
145.00
159.36
169.91
177.20
181.67
183.58
183.17
180.72
176.56
171.11
164.78
157.91
150.74
143.43
136.04
128.61
121.19
113.83
106.62
99.62
92.89
86.46
80.34
74.56
69.10
64.00
59.26
54.88
50.87
47.24
43.97
41.05
38.49
36.27
34.39
32.84
31.63
30.76
30.22
29.99
30.06
30.38
30.88
31.49
32.09
32.56
32.76
32.55
31.81
30.47
28.48
25.85
22.64
18.92
14.83
10.55
6.23
2.04
-1.89
-5.43
-8.53
-11.15
-13.27
-14.92
-16.13
-16.95
-17.43
-17.59
-17.50
-17.15
-16.58
-15.76
-14.69
-13.37
-11.79
-9.97
-7.86
-5.46
-2.74
0.30
3.67
7.37
11.31
15.42
19.63
23.89
28.15
32.41
36.65
40.93
45.32
49.73
54.15
58.58
63.04
67.59
72.25
77.09
82.20
87.69
93.40
99.24
105.16
111.14
117.17
123.25
129.40
135.69
142.16
148.54
154.58
160.07
164.74
168.30
170.33
170.26
167.25
162.76
157.27
151.05
144.33
137.26
130.00
122.68
115.42
108.32
101.52
94.73
87.80
80.66
73.28
65.71
58.03
50.35
42.74
35.33
27.94
20.50
13.06
5.73
-1.29
-7.81
-13.71
-18.97
-23.66
-28.13
-32.60
-37.14
-41.65
-45.88
-49.59
-52.66
-55.26
-57.75
-60.71
-64.60
-69.55
-75.32
-81.40
-87.24
-92.56
-97.53
-102.77
-109.08
-117.14
-127.12
-138.64
-150.92
-163.12
-174.78
-185.95
-197.22
-209.52
-223.91
-241.39
-262.62
-287.42
-314.33
-340.45
-361.91
-374.95
-377.31
-369.13
-352.85
-332.23
-310.70
-290.25
-271.05
-252.09
-232.30
-211.29
-189.68
-168.51
-148.67
-130.56
-114.04
-98.93
-85.23
-73.34
-63.99
-57.72
-54.60
-53.89
-54.16
-53.65
-50.97
-45.56
-37.93
-29.48
-21.98
-16.96
-15.27
-16.96
-21.39
-27.27
-32.82
-35.81
-33.83
-24.78
-7.51
17.68
48.94
83.38
117.89
149.92
177.92
201.35
220.53
236.33
250.09
263.47
278.01
294.41
311.80
327.57
337.80
338.81
328.55
307.50
278.34
244.68
209.76
175.53
142.55
110.52
78.57
45.75
11.41
-24.31
-60.03
-93.16
-120.46
-139.31
-148.89
-150.33
-145.94
-137.79
-126.70
-112.22
-93.54
-70.58
-44.30
-16.05
13.37
44.00
76.30
110.05
143.39
172.83
194.21
203.94
200.26
183.61
156.53
123.15
88.40
57.52
34.71
22.17
18.90
20.45
20.04
10.65
-12.30
-49.11
-95.57
-144.34
-187.49
-218.93
-235.74
-238.19
-228.56
-209.74
-184.34
-154.62
-122.92
-92.01
-64.84
-43.80
-29.90
-22.41
-19.22
-17.89
-16.54
-14.56
-12.46
-11.33
-12.07
-14.86
-19.10
-23.67
-27.34
-29.31
-29.42
-28.20
-26.59
-25.53
-25.57
-26.68
-28.36
-30.01
-31.28
-32.33
-33.65
-35.74
-38.66
-41.92
-44.41
-44.86
-42.22
-36.02
-26.63
-15.09
-2.92
8.26
17.17
23.05
25.82
25.86
23.87
20.57
16.61
12.52
8.78
5.84
4.02
3.40
3.71
4.40
4.81
4.45
3.12
0.93
-1.92
-5.33
-9.45
-14.51
-20.51
-27.11
-33.34
-37.93
-39.74
-38.04
-32.98
-25.42
-16.66
-8.02
-0.49
5.45
9.74
12.51
13.87
13.89
12.61
10.20
7.01
3.55
0.42
-1.89
-3.08
-3.15
-2.34
-1.09
0.08
0.75
0.61
-0.50
-2.69
-6.04
-10.49
-15.91
-21.84
-27.52
-32.00
-34.21
-33.31
-28.82
-20.83
-9.96
2.73
15.94
28.39
39.06
47.41
53.37
57.31
59.72
60.98
61.27
60.56
58.80
56.00
52.32
48.00
43.28
38.29
33.25
28.38
23.98
20.27
17.15
14.22
10.76
6.20
0.37
-6.27
-12.64
-17.38
-19.24
-17.43
-11.82
-2.93
8.14
19.98
31.10
40.13
46.04
48.29
46.89
42.28
35.27
26.88
18.09
9.86
2.86
-2.55
-6.27
-8.47
-9.33
-9.08
-7.95
-6.23
-4.36
-2.89
-2.35
-3.08
-5.15
-8.34
-12.20
-16.17
-19.58
-21.75
-22.00
-19.80
-14.94
-7.63
1.41
11.09
20.24
27.88
33.48
36.90
38.31
38.00
36.17
33.11
29.07
24.46
19.69
15.09
10.79
6.72
2.78
-1.00
-4.37
-6.98
-8.68
-9.62
-10.38
-11.70
-14.21
-18.04
-22.75
-27.44
-30.96
-32.28
-30.82
-26.52
-20.03
-12.39
-4.78
1.75
6.68
9.85
11.46
11.81
11.11
9.50
7.04
3.89
0.31
-3.36
-6.77
-9.70
-12.06
-13.90
-15.30
-16.29
-16.94
-17.39
-17.96
-19.16
-21.51
-25.25
-30.03
-34.96
-38.71
-40.04
-38.24
-33.30
-26.03
-17.71
-9.72
-3.36
0.59
1.79
0.41
-2.96
-7.55
-12.61
-17.59
-22.26
-26.62
-30.78
-34.70
-38.13
-40.67
-41.99
-42.05
-41.16
-39.96
-39.08
-39.06
-40.03
-41.80
-43.82
-45.20
-44.93
-41.91
-35.27
-24.64
-10.19
7.32
26.72
46.74
66.09
83.68
98.57
110.10
117.97
122.24
123.33
121.81
118.27
113.06
106.30
98.09
88.51
77.91
66.74
55.55
44.81
34.76
25.58
17.11
9.10
1.10
-7.33
-16.36
-25.77
-34.73
-42.07
-46.58
-47.51
-44.91
-39.64
-33.05
-26.59
-21.33
-17.82
-16.15
-16.06
-17.17
-18.99
-21.04
-22.81
-23.92
-24.12
-23.38
-21.92
-20.00
-17.99
-16.12
-14.57
-13.43
-12.67
-12.31
-12.36
-12.93
-14.20
-16.43
-19.71
-23.83
-28.07
-31.26
-32.05
-29.36
-22.82
-13.02
-1.37
10.31
20.34
27.62
31.79
33.09
32.07
29.33
25.47
21.03
16.58
12.67
9.67
7.83
7.00
6.89
7.10
7.28
7.33
7.26
7.23
7.41
7.86
8.49
9.06
9.22
8.63
7.13
4.93
2.68
1.39
2.02
5.23
10.98
18.60
27.04
35.14
42.02
47.17
50.43
51.94
51.89
50.59
48.39
45.65
42.79
40.10
37.79
35.88
34.18
32.41
30.24
27.45
24.03
20.18
16.18
12.19
8.11
3.55
-1.99
-8.89
-17.04
-25.82
-34.18
-40.99
-45.38
-46.99
-45.93
-42.84
-38.59
-34.10
-30.22
-27.50
-26.19
-26.15
-27.01
-28.25
-29.39
-30.06
-30.05
-29.25
-27.61
-25.16
-22.02
-18.39
-14.56
-10.73
-7.01
-3.39
0.22
3.76
7.08
9.85
11.73
12.60
12.57
12.08
11.82
12.41
14.42
18.01
23.04
29.08
35.47
41.46
46.26
49.12
49.49
47.20
42.53
36.20
29.15
22.17
15.69
9.64
3.70
-2.50
-9.03
-15.61
-21.73
-26.91
-30.83
-33.61
-35.68
-37.64
-40.16
-43.59
-48.10
-53.42
-58.86
-63.41
-65.70
-64.39
-58.38
-47.27
-31.57
-12.71
7.19
25.83
41.31
52.44
58.96
61.36
60.47
57.23
52.44
46.69
40.47
34.20
28.26
22.94
18.41
14.64
11.56
8.95
6.64
4.42
2.04
-0.68
-3.92
-7.64
-11.66
-15.57
-18.78
-20.62
-20.41
-17.75
-12.63
-5.70
1.85
8.53
12.98
14.45
13.05
9.64
5.46
1.61
-1.18
-2.67
-2.90
-1.92
0.12
3.12
6.74
10.42
13.51
15.44
15.93
15.04
12.96
9.88
5.79
0.58
-5.86
-13.26
-20.91
-27.73
-32.55
-34.51
-33.45
-29.92
-25.05
-20.11
-16.20
-13.88
-13.18
-13.80
-15.24
-17.10
-19.16
-21.43
-24.12
-27.40
-31.41
-35.96
-40.59
-44.60
-47.23
-47.88
-46.18
-42.12
-35.94
-28.15
-19.54
-11.08
-3.83
1.41
4.45
5.82
6.65
8.23
11.43
16.35
22.35
28.38
33.38
36.73
38.23
37.95
36.17
33.12
29.10
24.48
19.71
15.32
11.80
9.48
8.52
8.84
10.18
12.10
14.10
15.77
16.84
17.25
16.99
16.10
14.53
12.22
9.34
6.35
4.15
3.68
5.70
10.29
16.83
24.19
31.00
36.19
39.06
39.39
37.41
33.64
28.83
23.86
19.53
16.39
14.59
13.90
13.80
13.73
13.29
12.40
11.21
9.93
8.70
7.53
6.19
4.36
1.71
-1.96
-6.52
-11.52
-16.06
-19.26
-20.35
-19.13
-16.02
-11.83
-7.62
-4.19
-2.03
-1.22
-1.60
-2.95
-5.04
-7.71
-10.80
-14.10
-17.37
-20.30
-22.64
-24.15
-24.72
-24.38
-23.26
-21.68
-20.07
-18.85
-18.49
-19.23
-21.17
-24.00
-27.07
-29.50
-30.34
-28.97
-25.21
-19.46
-12.63
-5.83
-0.18
3.49
4.77
3.65
0.55
-3.88
-8.86
-13.66
-17.63
-20.23
-21.09
-19.91
-16.64
-11.53
-5.10
1.86
8.57
14.26
18.44
20.92
21.76
21.42
20.64
20.33
21.39
24.37
29.28
35.53
42.10
47.92
52.14
54.33
54.44
52.65
49.17
44.17
37.85
30.53
22.72
15.02
8.01
2.04
-2.92
-7.19
-11.34
-15.98
-21.53
-28.22
-35.88
-44.08
-52.12
-59.11
-64.08
-66.07
-64.42
-58.91
-49.98
-38.74
-26.73
-15.56
-6.39
0.31
4.84
7.95
10.35
12.39
13.94
14.55
13.86
11.84
8.93
5.78
3.02
1.02
-0.25
-1.04
-1.85
-3.21
-5.60
-9.42
-14.77
-21.41
-28.63
-35.35
-40.41
-42.82
-42.08
-38.31
-32.24
-24.97
-17.76
-11.69
-7.44
-5.26
-4.96
-6.13
-8.21
-10.70
-13.19
-15.35
-16.86
-17.48
-16.99
-15.39
-12.87
-9.80
-6.69
-3.88
-1.55
0.34
1.85
2.89
3.20
2.47
0.72
-1.46
-2.91
-2.23
1.64
9.06
19.48
31.71
44.39
56.37
66.88
75.36
81.31
84.25
83.83
80.21
74.03
66.48
58.81
51.89
46.20
41.57
37.64
33.99
30.21
26.07
21.31
15.81
9.48
2.41
-5.27
-13.36
-21.51
-29.21
-35.61
-39.67
-40.41
-37.32
-30.64
-21.44
-11.24
-1.66
6.22
11.79
15.03
16.17
15.53
13.59
10.83
7.83
5.15
2.99
1.37
0.00
-1.41
-2.96
-4.57
-5.99
-7.05
-7.77
-8.36
-9.12
-10.34
-12.28
-15.13
-19.02
-23.88
-29.26
-34.24
-37.58
-38.11
-35.11
-28.65
-19.60
-9.11
1.47
11.17
19.40
25.77
30.13
32.37
32.54
30.84
27.69
23.64
19.29
15.18
11.73
9.19
7.62
6.84
6.55
6.35
5.95
5.18
4.01
2.55
0.79
-1.37
-4.12
-7.76
-12.36
-17.87
-23.88
-29.69
-34.48
-37.26
-37.32
-34.23
-28.02
-19.24
-8.82
2.03
12.07
20.25
25.88
28.77
29.15
27.64
24.98
21.90
18.99
16.58
14.86
13.75
13.08
12.55
11.86
10.89
9.60
8.08
6.30
3.97
0.76
-3.73
-9.62
-16.56
-23.92
-30.82
-36.49
-40.32
-41.96
-41.18
-37.68
-31.04
-20.60
-5.67
14.17
38.76
67.21
98.10
129.48
159.10
184.33
202.21
209.82
204.94
187.48
160.21
128.45
98.83
76.94
65.79
65.25
72.76
84.87
98.24
109.87
116.81
116.03
104.92
82.47
50.06
11.39
-28.66
-65.58
-96.67
-121.33
-140.51
-155.69
-168.06
-178.30
-186.51
-192.81
-197.34
-200.45
-202.54
-203.71
-204.09
-203.87
-203.43
-203.42
-204.30
-205.92
-207.10
-205.68
-199.11
-185.60
-164.94
-138.76
-109.83
-80.86
-53.40
-27.69
-3.35
19.49
39.45
54.33
62.38
63.71
60.68
57.13
56.56
60.56
68.38
77.59
85.65
91.08
93.71
94.28
93.52
91.63
88.43
83.65
77.37
70.03
62.23
54.38
46.66
39.20
32.13
25.57
19.64
14.17
8.98
3.91
-1.00
-5.54
-9.47
-12.56
-14.77
-16.03
-16.54
-16.63
-16.65
-16.82
-16.91
-16.19
-13.73
-8.77
-1.31
7.76
16.95
24.64
29.74
31.95
31.66
29.63
26.56
22.99
19.20
15.37
11.79
8.67
6.32
4.90
4.40
4.63
5.21
5.78
6.10
6.07
5.61
4.46
2.14
-2.02
-8.53
-17.42
-27.94
-38.61
-47.62
-53.25
-54.50
-51.36
-44.57
-35.58
-25.85
-16.56
-8.51
-2.00
2.81
5.90
7.09
6.16
3.24
-1.10
-5.61
-8.69
-9.07
-6.26
-0.97
5.26
10.76
14.35
15.73
15.19
13.03
9.30
3.76
-3.59
-12.04
-20.10
-25.90
-27.97
-25.71
-19.65
-11.00
-1.24
8.36
16.96
24.11
29.71
33.88
36.87
38.86
39.86
39.72
38.14
34.87
30.03
23.87
16.89
9.60
2.35
-4.46
-10.50
-15.42
-18.99
-21.33
-22.80
-23.92
-25.09
-26.33
-27.35
-27.70
-27.06
-25.33
-22.55
-18.70
-13.59
-7.07
0.77
9.28
17.38
23.87
27.81
28.93
27.52
24.30
20.09
15.46
10.86
6.52
2.73
-0.10
-1.60
-1.56
-0.28
1.54
2.92
3.04
1.65
-0.82
-3.51
-5.53
-6.59
-7.03
-7.79
-9.86
-13.70
-18.91
-24.32
-28.46
-30.00
-28.31
-23.56
-16.55
-8.43
-0.26
7.07
12.99
17.13
19.31
19.44
17.60
13.98
8.99
3.17
-2.83
-8.33
-12.81
-15.96
-17.78
-18.55
-18.77
-18.99
-19.61
-20.85
-22.70
-25.16
-28.32
-32.51
-38.20
-45.75
-54.99
-65.08
-74.54
-81.59
-84.65
-82.79
-75.90
-64.59
-50.06
-33.69
-16.84
-0.75
13.75
26.10
36.07
43.61
48.73
51.67
52.86
53.14
53.51
54.88
57.69
61.61
65.78
69.10
70.68
70.03
66.95
61.40
53.31
42.62
29.62
15.17
0.81
-11.57
-20.21
-24.05
-23.03
-17.91
-10.12
-1.13
7.77
15.62
21.96
26.58
29.42
30.38
29.27
26.05
20.88
14.36
7.40
0.93
-4.49
-8.87
-12.71
-16.60
-20.77
-24.80
-27.87
-29.13
-28.28
-25.73
-22.41
-19.42
-17.42
-16.64
-16.79
-17.31
-17.70
-17.48
-16.34
-13.89
-9.73
-3.55
4.61
14.23
24.36
33.91
42.12
48.73
53.88
57.76
60.23
60.71
58.50
53.28
45.47
36.34
27.44
20.06
14.74
11.35
9.23
7.74
6.37
4.70
2.44
-0.90
-5.71
-12.11
-19.78
-27.74
-34.62
-38.89
-39.38
-35.66
-28.31
-18.89
-9.50
-2.27
1.45
1.48
-1.31
-5.61
-10.52
-16.08
-23.20
-32.84
-44.97
-58.13
-69.43
-75.67
-74.37
-64.55
-47.14
-24.57
-0.25
22.15
39.69
50.67
55.07
54.33
50.56
45.74
41.12
37.32
34.74
34.01
35.79
40.12
45.89
50.89
52.78
50.43
44.60
37.56
31.73
28.31
26.75
25.23
22.27
17.44
11.84
7.29
5.14
5.75
8.21
10.83
11.61
8.75
1.23
-10.76
-25.38
-39.40
-49.15
-51.76
-46.32
-34.14
-18.11
-1.43
13.44
25.34
34.38
41.42
47.73
54.60
63.08
73.79
86.47
99.82
111.57
118.84
119.13
110.97
94.51
71.64
45.43
19.33
-3.80
-22.31
-36.01
-45.68
-52.52
-57.56
-61.46
-64.55
-67.15
-69.55
-71.95
-74.46
-76.92
-79.02
-80.27
-80.21
-78.37
-74.39
-68.03
-59.18
-47.92
-34.52
-19.53
-3.87
11.32
24.74
35.34
42.54
46.37
47.44
46.59
44.65
42.17
39.44
36.62
33.82
31.26
29.08
27.29
25.80
24.29
22.58
20.68
18.82
17.33
16.40
16.07
16.12
16.31
16.63
17.36
19.04
22.14
26.65
31.91
36.58
39.11
38.30
33.79
26.22
16.84
7.08
-2.12
-10.42
-17.99
-25.04
-31.47
-36.81
-40.40
-41.79
-41.14
-39.13
-36.81
-34.99
-34.03
-33.75
-33.78
-34.03
-34.85
-36.93
-40.77
-46.17
-52.11
-56.99
-59.38
-58.61
-54.99
-49.46
-42.86
-35.59
-27.54
-18.56
-9.06
0.04
7.45
12.28
14.34
14.04
12.19
9.44
6.24
2.99
0.17
-1.58
-1.77
-0.31
2.45
5.85
9.25
12.12
14.06
14.70
13.72
11.18
7.67
4.38
2.65
3.42
6.78
11.87
17.38
21.86
24.41
24.84
23.46
20.95
17.84
14.42
10.71
6.58
2.22
-1.67
-3.91
-3.20
1.20
8.78
17.73
25.48
29.74
29.59
25.84
20.46
15.58
12.33
10.44
8.92
6.93
4.66
3.18
3.67
6.42
10.43
13.99
15.61
14.95
12.90
10.88
10.07
10.57
11.65
12.17
11.31
9.07
6.18
3.62
2.17
2.06
2.92
4.10
4.88
4.77
3.60
1.46
-1.34
-4.44
-7.44
-10.07
-12.12
-13.48
-14.07
-13.84
-12.88
-11.33
-9.53
-8.08
-7.72
-9.03
-12.11
-16.32
-20.52
-23.56
-24.83
-24.54
-23.43
-22.21
-20.99
-19.32
-16.72
-13.36
-10.35
-9.21
-10.96
-15.40
-21.03
-25.91
-28.77
-29.81
-30.45
-32.38
-36.39
-41.79
-46.68
-48.90
-46.94
-40.51
-30.17
-16.74
-0.75
17.53
37.70
58.86
79.39
97.26
110.79
118.97
121.76
119.57
112.75
101.43
85.75
66.45
45.07
23.63
4.08
-12.34
-25.40
-35.44
-42.85
-47.47
-48.42
-44.51
-35.02
-20.43
-2.72
14.98
29.44
38.40
41.28
39.21
34.27
28.41
22.70
17.26
11.94
6.98
3.38
2.22
3.95
7.76
11.68
13.59
12.10
7.25
0.33
-6.92
-13.18
-18.01
-21.82
-25.29
-28.76
-32.10
-34.76
-36.29
-36.63
-36.28
-36.18
-37.30
-40.43
-45.75
-52.84
-60.86
-68.71
-75.66
-81.75
-88.16
-97.14
-111.49
-133.49
-163.45
-198.73
-233.53
-260.10
-270.96
-261.38
-230.81
-182.84
-123.74
-60.65
-0.02
53.16
95.52
125.57
143.88
153.03
156.82
158.79
160.68
161.79
159.81
152.65
140.17
124.70
109.95
99.27
94.06
93.47
95.22
96.94
97.09
95.18
91.50
86.43
80.09
72.35
63.10
52.61
41.72
31.63
23.48
17.90
14.67
12.79
11.01
8.30
4.35
-0.41
-5.14
-9.07
-11.90
-13.84
-15.31
-16.60
-17.64
-17.99
-17.13
-14.78
-11.07
-6.54
-1.96
1.94
4.63
5.84
5.57
4.00
1.49
-1.51
-4.48
-6.99
-8.76
-9.71
-9.98
-9.80
-9.40
-8.93
-8.48
-8.10
-7.92
-8.05
-8.61
-9.66
-11.17
-13.03
-15.10
-17.17
-18.93
-19.92
-19.60
-17.51
-13.47
-7.72
-0.97
5.78
11.50
15.41
17.18
17.01
15.44
13.23
11.09
9.52
8.77
8.82
9.38
10.00
10.12
9.19
6.77
2.76
-2.70
-9.12
-15.92
-22.54
-28.61
-33.87
-38.02
-40.56
-40.72
-37.72
-31.07
-21.11
-9.06
3.03
12.98
19.11
20.83
18.68
13.99
8.15
2.11
-3.77
-9.53
-15.17
-20.38
-24.61
-27.31
-28.18
-27.23
-24.69
-20.80
-15.84
-10.26
-4.85
-0.74
0.96
-0.42
-4.75
-11.07
-17.91
-23.81
-27.66
-28.83
-27.13
-22.64
-15.71
-7.06
2.25
10.95
17.86
22.23
23.88
23.11
20.45
16.47
11.58
6.22
0.91
-3.69
-6.94
-8.44
-8.23
-6.74
-4.53
-1.94
1.11
5.01
10.13
16.44
23.32
29.70
34.39
36.56
36.04
33.30
29.23
24.77
20.74
17.67
15.85
15.36
16.05
17.60
19.50
21.17
22.11
21.96
20.54
17.90
14.23
9.90
5.32
0.87
-3.13
-6.52
-9.28
-11.48
-13.21
-14.55
-15.62
-16.55
-17.51
-18.70
-20.18
-21.86
-23.50
-24.75
-25.27
-24.85
-23.44
-21.14
-18.17
-14.79
-11.23
-7.65
-4.16
-0.88
2.00
4.21
5.42
5.43
4.26
2.23
-0.13
-2.23
-3.61
-4.02
-3.45
-2.03
0.02
2.43
4.82
6.82
8.10
8.46
7.95
6.81
5.25
3.35
0.96
-2.10
-5.82
-9.81
-13.35
-15.63
-16.10
-14.66
-11.71
-7.91
-3.95
-0.38
2.42
4.21
4.88
4.43
3.10
1.28
-0.52
-1.86
-2.53
-2.53
-2.07
-1.42
-0.91
-0.88
-1.63
-3.37
-6.10
-9.56
-13.30
-16.86
-20.01
-22.78
-25.45
-28.29
-31.39
-34.51
-37.15
-38.82
-39.26
-38.63
-37.53
-36.82
-37.26
-39.31
-42.86
-47.33
-51.88
-55.76
-58.54
-60.24
-61.13
-61.44
-61.15
-60.01
-57.69
-54.10
-49.44
-44.07
-38.23
-31.89
-24.82
-16.89
-8.30
0.39
8.73
16.84
25.71
36.90
51.73
70.51
92.12
114.31
134.58
151.09
163.13
170.91
174.97
175.58
172.57
165.70
155.18
142.09
128.12
115.09
104.17
95.48
88.18
81.00
72.89
63.49
53.26
43.13
34.06
26.58
20.65
15.78
11.36
6.95
2.43
-1.97
-5.83
-8.69
-10.12
-9.84
-7.78
-4.18
0.35
4.92
8.58
10.65
10.84
9.37
6.65
3.07
-1.18
-6.10
-11.69
-17.74
-23.82
-29.39
-34.09
-37.86
-41.04
-44.07
-47.32
-50.88
-54.52
-57.91
-60.84
-63.31
-65.67
-68.40
-71.95
-76.57
-82.18
-88.27
-93.97
-98.20
-99.92
-98.46
-93.86
-86.85
-78.67
-70.70
-64.04
-59.37
-56.94
-56.68
-58.25
-61.14
-64.60
-67.73
-69.72
-70.05
-68.66
-65.92
-62.40
-58.68
-55.14
-51.93
-49.05
-46.26
-43.24
-39.62
-35.12
-29.62
-23.32
-16.70
-10.28
-4.50
0.56
5.13
9.68
14.81
21.03
28.74
38.12
49.14
61.38
74.11
86.28
96.73
104.44
108.75
109.47
106.87
101.55
94.29
85.89
77.16
68.83
61.59
55.99
52.36
50.87
51.44
53.85
57.72
62.57
67.83
72.88
77.10
80.02
81.39
81.22
79.87
77.94
76.12
75.07
75.21
76.72
79.44
82.94
86.48
89.13
89.78
87.41
81.30
71.31
58.09
43.00
27.82
14.29
3.64
-3.62
-7.76
-9.57
-10.13
-10.57
-11.84
-14.53
-18.76
-24.21
-30.22
-36.12
-41.53
-46.39
-50.96
-55.50
-60.05
-64.38
-67.98
-70.19
-70.30
-67.69
-62.11
-54.03
-44.82
-36.52
-31.01
-29.00
-29.33
-29.16
-25.12
-14.76
2.25
23.90
46.65
66.79
81.62
89.99
92.25
89.62
83.75
76.33
68.97
63.04
59.54
58.87
60.79
64.60
69.36
74.41
79.43
84.15
87.86
88.88
84.60
72.24
50.08
18.46
-19.93
-60.83
-99.79
-133.53
-160.78
-182.32
-200.32
-217.56
-236.67
-259.54
-286.94
-318.20
-351.20
-382.83
-409.75
-429.28
-440.04
-442.06
-436.49
-424.90
-408.74
-388.85
-365.38
-337.95
-306.10
-269.69
-229.31
-186.29
-142.43
-99.44
-58.49
-20.11
15.65
48.68
78.60
104.85
127.11
145.74
161.89
176.97
191.99
206.85
220.33
230.58
236.09
236.35
232.10
224.72
215.53
205.20
193.71
180.80
166.59
151.81
137.69
125.36
115.36
107.37
100.62
94.22
87.69
81.00
74.34
67.89
61.54
55.02
47.97
40.19
31.75
23.01
14.51
7.02
1.34
-1.84
-2.14
0.28
4.68
9.83
14.33
16.98
17.00
14.16
8.63
0.84
-8.63
-19.14
-30.02
-40.65
-50.57
-59.73
-68.34
-76.69
-84.68
-91.59
-96.06
-96.68
-92.67
-84.39
-73.23
-61.00
-49.16
-38.22
-27.83
-17.26
-6.11
5.50
17.10
28.40
39.61
51.30
63.92
77.21
90.09
100.88
108.09
110.94
109.57
104.83
97.74
89.10
79.45
69.22
58.99
49.59
41.95
36.78
34.29
34.15
35.65
38.07
40.93
44.12
47.78
52.07
56.85
61.63
65.68
68.28
69.13
68.60
67.76
68.13
71.06
77.18
85.98
95.88
104.74
110.63
112.34
109.62
102.89
92.89
80.41
66.34
51.78
38.12
26.71
18.49
13.58
11.33
10.63
10.45
10.25
10.11
10.49
11.97
14.90
19.30
24.80
30.64
35.88
39.50
40.72
39.16
34.88
28.26
19.75
9.74
-1.44
-13.40
-25.70
-37.88
-49.64
-60.96
-71.95
-82.56
-92.33
-100.43
-106.09
-109.12
-110.21
-110.72
-112.10
-115.16
-119.86
-125.37
-130.72
-135.24
-138.69
-141.20
-142.88
-143.68
-143.35
-141.70
-138.80
-135.12
-131.39
-128.32
-126.30
-125.08
-123.77
-120.92
-115.06
-105.13
-90.94
-73.35
-53.98
-34.79
-17.51
-3.24
7.63
15.30
20.32
23.30
24.85
25.45
25.53
25.30
24.78
23.72
21.77
18.65
14.53
10.03
6.17
3.98
3.99
5.91
8.65
10.58
10.10
6.17
-1.35
-11.72
-23.60
-35.47
-45.92
-53.79
-58.25
-58.94
-56.11
-50.65
-43.80
-36.73
-29.96
-23.23
-15.86
-7.41
1.85
11.04
19.31
26.54
33.57
41.71
51.72
63.11
74.20
82.95
88.05
89.57
88.73
87.15
85.86
84.90
83.57
81.07
77.25
72.88
69.47
68.68
71.65
78.50
88.18
98.79
108.18
114.55
117.00
115.59
111.19
104.97
97.99
90.86
83.78
76.58
68.99
60.81
51.95
42.44
32.46
22.23
12.07
2.26
-7.03
-15.77
-24.05
-32.02
-39.71
-47.02
-53.69
-59.38
-63.77
-66.62
-67.85
-67.45
-65.49
-62.05
-57.21
-51.00
-43.45
-34.65
-24.83
-14.47
-4.32
4.74
11.92
16.74
19.11
19.38
18.12
16.00
13.66
11.67
10.61
11.03
13.35
17.70
23.65
30.18
35.93
39.50
40.02
37.30
31.87
24.75
16.94
9.11
1.47
-6.05
-13.35
-19.72
-23.78
-23.78
-18.47
-7.93
6.05
20.22
31.04
35.93
34.23
27.26
17.75
8.68
2.45
0.40
2.78
9.02
17.77
27.15
35.05
39.46
38.98
33.11
22.33
7.72
-9.40
-27.75
-46.11
-63.27
-77.95
-88.89
-95.05
-95.87
-91.35
-82.10
-69.25
-54.36
-39.23
-25.68
-15.27
-8.98
-7.04
-8.94
-13.54
-19.42
-25.21
-29.84
-32.75
-33.90
-33.76
-33.12
-32.82
-33.51
-35.42
-38.36
-41.89
-45.62
-49.52
-53.92
-59.30
-65.88
-73.22
-80.16
-85.15
-86.74
-84.04
-76.96
-66.10
-52.36
-36.81
-20.46
-4.34
10.59
23.48
33.80
41.58
47.28
51.68
55.51
59.09
62.32
64.65
65.42
64.14
60.74
55.64
49.59
43.41
37.77
33.06
29.57
27.51
27.07
28.21
30.50
33.05
34.81
35.02
33.60
31.22
29.02
28.03
28.84
31.39
35.30
40.12
45.52
51.34
57.26
62.73
66.90
68.89
68.11
64.46
58.49
51.18
43.67
36.89
31.34
26.97
23.40
20.09
16.69
13.14
9.61
6.35
3.46
0.82
-1.88
-4.97
-8.67
-12.94
-17.42
-21.55
-24.56
-25.82
-24.87
-21.65
-16.54
-10.22
-3.52
2.90
8.62
13.48
17.41
20.34
22.09
22.53
21.63
19.58
16.73
13.44
9.96
6.43
2.96
-0.25
-2.88
-4.59
-5.19
-4.81
-3.97
-3.34
-3.63
-5.36
-8.68
-13.48
-19.33
-25.65
-31.68
-36.60
-39.72
-40.63
-39.40
-36.62
-33.29
-30.47
-29.01
-29.29
-31.19
-34.25
-37.98
-42.01
-46.13
-50.18
-53.92
-56.92
-58.63
-58.58
-56.47
-52.30
-46.43
-39.38
-31.83
-24.40
-17.61
-11.78
-6.99
-3.21
-0.38
1.45
2.12
1.49
-0.41
-3.16
-6.05
-8.26
-9.14
-8.47
-6.40
-3.40
0.04
3.47
6.53
8.85
10.10
10.08
8.90
7.09
5.52
5.17
6.91
11.18
17.95
26.70
36.54
46.33
54.84
61.02
64.31
64.77
63.09
60.25
57.09
53.96
50.58
46.33
40.66
33.51
25.36
17.18
10.04
4.75
1.70
0.83
1.71
3.73
6.16
8.26
9.33
8.89
6.80
3.35
-0.75
-4.66
-7.78
-10.12
-12.39
-15.80
-21.33
-29.23
-38.69
-48.10
-55.71
-60.33
-61.81
-60.91
-59.00
-57.46
-57.41
-59.60
-64.41
-71.77
-81.06
-91.00
-99.72
-105.33
-106.38
-102.33
-93.65
-81.51
-67.39
-52.59
-37.97
-23.93
-10.54
2.24
14.36
25.58
35.42
43.31
48.73
51.44
51.62
49.79
46.63
42.82
38.83
34.95
31.34
28.09
25.28
22.87
20.62
18.15
15.15
11.56
7.75
4.54
2.83
3.23
5.78
9.93
14.76
19.29
22.83
25.10
26.17
26.26
25.62
24.42
22.72
20.64
18.31
15.96
13.81
12.02
10.58
9.37
8.18
6.78
5.07
3.08
0.94
-1.21
-3.27
-5.25
-7.28
-9.48
-11.87
-14.23
-16.13
-17.02
-16.39
-13.99
-9.99
-4.89
0.60
5.79
10.19
13.51
15.64
16.49
15.89
13.71
9.98
5.01
-0.59
-6.06
-10.72
-14.20
-16.47
-17.79
-18.55
-19.16
-19.95
-21.19
-23.10
-25.74
-28.96
-32.26
-34.87
-35.99
-35.10
-32.13
-27.46
-21.67
-15.26
-8.36
-0.90
7.23
15.76
23.94
30.62
34.65
35.29
32.47
26.88
19.80
12.82
7.58
5.52
7.67
14.51
25.78
40.44
56.80
72.78
86.42
96.29
101.69
102.44
98.57
89.94
76.21
57.19
33.37
6.32
-21.40
-46.80
-67.32
-81.48
-89.09
-90.86
-87.78
-80.56
-69.56
-55.07
-37.73
-18.81
-0.06
16.60
29.70
38.46
42.73
42.78
38.99
31.89
22.26
11.48
1.51
-5.37
-7.25
-3.20
6.28
19.43
33.69
46.53
55.97
61.01
61.59
58.37
52.46
45.17
37.79
31.36
26.42
22.96
20.35
17.62
13.65
7.56
-1.11
-12.24
-25.10
-38.43
-50.70
-60.47
-66.74
-69.27
-68.61
-65.99
-62.89
-60.64
-60.03
-61.15
-63.35
-65.52
-66.43
-65.09
-61.17
-55.04
-47.49
-39.40
-31.16
-22.65
-13.33
-2.88
8.42
19.55
29.02
35.51
38.34
37.68
34.24
28.95
22.55
15.53
8.23
1.04
-5.60
-11.26
-15.76
-19.17
-21.72
-23.64
-24.96
-25.67
-25.81
-25.67
-25.80
-26.73
-28.82
-31.94
-35.49
-38.50
-39.92
-38.84
-34.66
-27.16
-16.46
-3.08
12.10
27.89
42.84
55.55
64.84
70.04
71.07
68.35
62.74
55.32
47.23
39.55
33.02
28.00
24.31
21.37
18.57
15.54
12.39
9.74
8.40
9.09
12.13
17.37
24.28
32.18
40.34
48.02
54.52
59.17
61.58
61.75
60.19
57.72
55.15
52.93
50.95
48.64
45.42
40.97
35.47
29.32
22.79
15.83
8.06
-0.79
-10.54
-20.40
-29.21
-35.98
-40.31
-42.49
-43.25
-43.22
-42.57
-40.89
-37.61
-32.40
-25.63
-18.36
-11.95
-7.45
-5.15
-4.53
-4.48
-3.97
-2.59
-0.74
0.57
0.23
-2.37
-7.12
-13.19
-19.47
-24.93
-28.93
-31.32
-32.31
-32.45
-32.65
-34.10
-38.15
-45.76
-56.97
-70.47
-83.69
-93.47
-97.13
-93.48
-83.25
-68.86
-53.56
-40.34
-31.09
-26.19
-24.65
-24.72
-24.49
-22.63
-18.55
-12.43
-4.88
3.43
11.95
20.31
28.22
35.32
41.28
45.79
48.69
49.95
49.55
47.42
43.54
38.13
31.72
25.15
19.25
14.60
11.28
8.93
7.01
5.07
2.90
0.57
-1.73
-3.86
-5.71
-7.23
-8.26
-8.63
-8.18
-6.91
-5.06
-2.99
-1.10
0.38
1.40
2.08
2.55
2.71
2.27
0.82
-1.88
-5.66
-9.85
-13.41
-15.25
-14.62
-11.43
-6.20
0.16
6.65
12.50
17.27
20.79
23.03
24.02
23.81
22.55
20.42
17.73
14.75
11.75
8.92
6.42
4.35
2.69
1.36
0.13
-1.28
-3.20
-5.90
-9.54
-14.04
-19.00
-23.65
-27.03
-28.16
-26.40
-21.71
-14.62
-6.13
2.67
10.76
17.38
22.06
24.62
25.17
24.09
22.03
19.66
17.46
15.66
14.14
12.65
10.92
8.87
6.60
4.30
2.16
0.29
-1.33
-2.84
-4.44
-6.38
-8.90
-12.12
-15.93
-19.89
-23.27
-25.19
-24.92
-22.08
-16.84
-9.83
-2.00
5.70
12.55
18.14
22.35
25.13
26.47
26.33
24.76
22.01
18.56
15.05
12.02
9.77
8.29
7.29
6.40
5.30
3.91
2.26
0.50
-1.22
-2.89
-4.62
-6.61
-9.11
-12.26
-16.11
-20.47
-24.95
-29.00
-31.94
-33.16
-32.17
-28.82
-23.32
-16.26
-8.51
-1.01
5.36
10.00
12.61
13.19
12.05
9.64
6.47
2.97
-0.56
-3.91
-7.00
-9.79
-12.29
-14.63
-16.95
-19.48
-22.37
-25.73
-29.57
-33.80
-38.32
-43.04
-47.90
-52.95
-58.15
-63.44
-68.52
-72.72
-75.02
-74.23
-69.39
-60.10
-46.69
-30.20
-12.00
6.53
24.34
40.71
55.10
67.03
76.03
81.82
84.41
84.23
81.95
78.38
74.19
69.79
65.42
61.15
56.98
52.94
48.94
44.90
40.75
36.39
31.87
27.28
22.70
18.10
13.36
8.32
2.90
-2.74
-8.23
-12.94
-16.20
-17.49
-16.52
-13.41
-8.64
-2.90
3.01
8.44
12.94
16.34
18.67
20.03
20.60
20.47
19.74
18.51
16.90
15.05
13.16
11.40
9.91
8.70
7.71
6.78
5.75
4.53
3.07
1.39
-0.45
-2.45
-4.64
-7.14
-10.06
-13.45
-17.20
-21.02
-24.46
-26.96
-28.00
-27.18
-24.40
-19.85
-14.00
-7.47
-0.90
5.20
10.41
14.39
16.88
17.76
17.17
15.49
13.36
11.36
9.92
9.14
8.84
8.64
8.23
7.39
6.10
4.47
2.67
0.80
-1.05
-2.92
-4.84
-6.91
-9.15
-11.60
-14.31
-17.36
-20.77
-24.41
-27.86
-30.44
-31.36
-30.06
-26.43
-20.93
-14.42
-7.81
-1.75
3.45
7.75
11.19
13.71
15.12
15.31
14.33
12.51
10.38
8.41
6.94
5.91
5.02
3.79
1.90
-0.51
-2.82
-4.01
-3.13
0.18
5.36
10.94
15.05
16.11
13.44
7.54
-0.17
-7.88
-14.01
-17.72
-19.03
-18.73
-17.85
-17.29
-17.35
-17.62
-17.27
-15.50
-12.06
-7.37
-2.41
1.54
3.34
1.99
-2.97
-10.72
-18.49
-21.57
-14.97
3.98
33.26
65.77
91.56
101.87
92.95
67.55
33.45
0.04
-25.22
-38.60
-40.09
-32.03
-17.89
-1.59
12.83
21.58
22.01
13.63
-1.58
-19.61
-35.61
-45.20
-45.67
-36.69
-20.22
-0.06
19.25
33.65
40.63
39.84
32.92
22.73
12.28
3.84
-1.55
-4.06
-4.57
-4.17
-3.72
-3.71
-4.29
-5.41
-6.94
-8.77
-10.85
-13.24
-16.00
-19.17
-22.66
-26.11
-28.99
-30.64
-30.53
-28.37
-24.28
-18.67
-12.16
-5.41
0.93
6.34
10.45
13.11
14.43
14.78
14.66
14.48
14.43
14.34
13.91
12.80
10.92
8.50
5.96
3.76
2.14
1.00
-0.01
-1.39
-3.59
-6.81
-11.00
-15.83
-20.80
-25.31
-28.76
-30.70
-30.95
-29.81
-28.10
-27.19
-28.51
-33.16
-41.39
-52.42
-64.64
-76.05
-84.91
-90.06
-91.02
-87.82
-80.73
-70.25
-57.10
-42.44
-27.83
-15.02
-5.49
0.04
1.88
1.26
-0.18
-0.98
-0.48
1.06
2.69
3.44
2.86
1.35
0.01
0.10
2.56
7.65
14.99
23.78
33.08
42.03
49.89
56.10
60.34
62.61
63.28
63.10
63.00
63.86
66.20
70.04
74.92
80.01
84.36
87.17
87.88
86.32
82.61
77.10
70.22
62.34
53.69
44.41
34.64
24.68
15.00
6.18
-1.27
-7.08
-11.18
-13.73
-14.90
-14.84
-13.82
-12.23
-10.73
-10.02
-10.63
-12.65
-15.67
-18.91
-21.52
-22.87
-22.69
-21.09
-18.41
-15.07
-11.49
-7.98
-4.79
-2.03
0.29
2.25
3.95
5.46
6.78
7.88
8.70
9.24
9.62
10.09
10.98
12.55
14.90
17.80
20.71
22.98
24.06
23.74
22.20
19.94
17.50
15.23
13.17
11.16
9.03
6.90
5.12
4.08
3.81
3.89
3.67
2.79
1.69
1.50
3.52
8.35
15.29
22.44
27.46
28.66
25.66
19.44
11.56
3.45
-4.12
-10.99
-17.22
-22.73
-27.24
-30.57
-32.79
-34.40
-36.11
-38.49
-41.68
-45.39
-49.06
-52.14
-54.35
-55.75
-56.61
-57.26
-57.93
-58.57
-58.89
-58.58
-57.46
-55.74
-54.05
-53.18
-53.75
-55.74
-58.36
-60.23
-59.84
-56.17
-49.04
-39.12
-27.57
-15.60
-4.05
6.74
16.76
26.25
35.47
44.59
53.66
62.48
70.70
77.88
83.61
87.66
89.97
90.52
89.20
85.79
80.09
72.21
62.58
51.84
40.54
28.88
16.77
4.09
-9.00
-21.99
-34.25
-45.30
-55.01
-63.52
-71.04
-77.64
-83.25
-87.86
-91.62
-94.88
-97.97
-100.99
-103.80
-106.18
-108.07
-109.79
-111.87
-114.81
-118.77
-123.43
-127.91
-130.85
-130.54
-125.13
-113.14
-94.04
-68.78
-39.82
-10.62
15.51
36.51
52.28
64.43
75.25
86.54
98.72
110.82
121.26
128.68
132.64
133.45
131.82
128.24
122.87
115.80
107.35
98.42
90.27
84.01
80.05
77.76
75.73
72.27
66.19
57.24
46.27
34.81
24.50
16.41
10.83
7.23
4.60
1.84
-1.83
-6.70
-12.55
-18.70
-24.18
-27.92
-28.96
-26.67
-20.89
-11.94
-0.63
11.93
24.41
35.47
43.93
49.02
50.47
48.56
43.95
37.52
30.16
22.58
15.22
8.14
1.10
-6.30
-14.20
-22.27
-29.52
-34.75
-36.97
-36.05
-32.78
-28.70
-25.53
-24.61
-26.77
-32.26
-40.84
-51.77
-63.61
-74.27
-81.36
-82.84
-77.68
-66.22
-49.96
-30.94
-11.10
8.01
25.28
39.76
50.64
57.34
59.84
58.86
55.76
52.12
49.15
47.41
46.66
46.18
45.33
43.74
41.51
38.94
36.33
33.63
30.38
25.78
18.92
9.19
-3.41
-18.12
-33.51
-47.86
-59.66
-67.96
-72.54
-73.85
-72.73
-70.17
-67.20
-64.80
-63.89
-65.22
-69.19
-75.59
-83.51
-91.52
-98.04
-101.89
-102.69
-101.00
-98.09
-95.45
-94.19
-94.70
-96.47
-98.39
-98.91
-96.49
-89.80
-78.21
-62.03
-42.68
-22.52
-4.09
10.74
21.55
29.52
36.87
45.81
57.59
72.00
87.68
102.82
115.89
126.01
132.77
135.92
135.24
130.62
122.44
111.75
100.16
89.31
80.28
73.31
67.88
63.14
58.40
53.36
48.06
42.66
37.21
31.69
26.17
20.95
16.60
13.66
12.39
12.53
13.49
14.50
15.10
15.26
15.39
16.20
18.33
22.21
27.87
34.95
42.83
50.74
57.80
63.22
66.26
66.40
63.36
57.22
48.48
38.03
26.96
16.40
7.15
-0.43
-6.44
-11.26
-15.31
-18.82
-21.79
-24.12
-25.60
-26.23
-26.16
-25.77
-25.46
-25.56
-26.19
-27.26
-28.63
-30.20
-32.02
-34.25
-36.92
-39.76
-42.18
-43.43
-42.95
-40.59
-36.69
-31.88
-26.82
-22.02
-17.79
-14.36
-11.96
-10.82
-11.00
-12.34
-14.36
-16.44
-18.04
-18.87
-18.92
-18.50
-17.95
-17.61
-17.62
-17.95
-18.42
-18.76
-18.86
-18.73
-18.64
-18.99
-20.16
-22.31
-25.28
-28.55
-31.35
-32.90
-32.54
-29.90
-25.06
-18.47
-10.91
-3.19
4.04
10.31
15.39
19.04
21.01
21.13
19.50
16.62
13.30
10.34
8.10
6.41
4.69
2.30
-0.99
-5.00
-9.25
-13.23
-16.64
-19.48
-21.89
-24.11
-26.41
-29.12
-32.61
-37.11
-42.54
-48.37
-53.72
-57.57
-59.09
-57.93
-54.19
-48.39
-41.24
-33.42
-25.41
-17.41
-9.43
-1.40
6.59
14.21
20.91
26.20
29.95
32.42
34.24
36.03
38.10
40.30
42.12
43.00
42.66
41.20
39.15
37.10
35.46
34.30
33.20
31.49
28.45
23.70
17.47
10.61
4.34
-0.15
-2.15
-1.61
0.98
4.90
9.51
14.42
19.46
24.54
29.56
34.33
38.63
42.18
44.64
45.56
44.40
40.68
34.15
24.98
13.76
1.27
-11.50
-23.65
-34.18
-41.98
-45.74
-44.08
-36.01
-21.23
-0.42
24.78
52.10
79.06
103.45
123.49
137.82
145.49
146.06
139.75
127.68
111.75
94.29
77.31
62.02
48.34
35.28
21.53
6.17
-10.72
-28.25
-44.99
-59.69
-71.70
-80.89
-87.52
-91.88
-94.38
-95.70
-96.79
-98.62
-101.52
-104.65
-106.02
-103.15
-94.13
-78.51
-57.49
-33.41
-8.75
14.48
34.90
51.58
63.80
71.18
73.96
73.45
71.48
69.99
70.12
71.81
74.09
75.44
74.39
69.77
60.81
47.38
30.23
11.17
-7.20
-22.26
-32.32
-37.34
-38.88
-39.16
-39.98
-41.94
-44.41
-46.25
-46.68
-45.76
-44.29
-43.26
-43.18
-43.94
-44.94
-45.43
-44.91
-43.10
-40.07
-35.90
-30.71
-24.67
-18.04
-11.32
-5.21
-0.50
2.10
2.27
0.21
-3.41
-7.55
-11.25
-13.82
-15.07
-15.26
-14.88
-14.42
-14.20
-14.32
-14.76
-15.45
-16.30
-17.31
-18.48
-19.81
-21.35
-23.16
-25.24
-27.53
-29.74
-31.46
-32.18
-31.47
-29.11
-25.20
-20.11
-14.35
-8.49
-3.07
1.46
4.76
6.66
7.16
6.48
5.06
3.43
2.11
1.38
1.23
1.46
1.72
1.80
1.50
0.64
-1.11
-4.21
-8.81
-14.54
-20.19
-24.05
-24.46
-20.61
-12.93
-2.95
7.34
16.21
22.74
26.84
28.91
29.39
28.55
26.66
24.22
22.12
21.50
23.24
27.55
33.76
40.64
46.81
51.33
53.96
55.06
55.29
55.19
55.08
55.08
55.26
55.85
57.09
59.04
61.56
64.15
66.27
67.50
67.90
68.26
70.16
75.72
86.71
103.38
123.59
142.84
155.44
156.60
144.24
119.81
87.42
51.86
16.45
-18.00
-53.07
-91.39
-135.00
-183.83
-235.04
-283.54
-323.60
-351.08
-365.08
-368.13
-364.72
-358.63
-350.69
-338.19
-316.47
-281.70
-233.59
-176.39
-117.94
-67.14
-31.24
-13.84
-14.23
-27.81
-47.29
-64.30
-71.23
-63.06
-38.78
-2.05
39.18
74.42
93.35
88.90
59.68
10.66
-48.16
-104.75
-148.39
-172.24
-174.06
-155.53
-120.66
-74.24
-21.19
33.65
85.41
129.53
162.47
182.76
191.49
192.02
188.59
184.60
181.26
177.29
170.06
157.19
138.15
114.79
90.56
69.09
52.67
41.59
34.49
29.42
24.80
20.20
16.12
13.47
12.95
14.56
17.62
20.80
22.50
21.31
16.57
8.84
-0.04
-7.42
-10.84
-9.07
-2.62
6.51
15.88
23.69
29.39
33.54
37.08
40.54
43.76
46.11
47.04
46.50
45.12
43.88
43.76
45.17
47.57
49.56
49.29
45.26
37.00
25.33
12.13
-0.36
-10.24
-16.31
-18.12
-15.66
-9.28
0.33
11.99
24.01
34.46
41.67
44.65
43.38
38.61
31.62
23.72
16.04
9.27
3.59
-1.24
-5.74
-10.39
-15.37
-20.45
-24.97
-28.08
-29.02
-27.39
-23.34
-17.60
-11.29
-5.55
-1.14
1.85
4.01
6.38
10.00
15.43
22.51
30.42
37.98
44.01
47.70
48.76
47.36
44.13
39.87
35.38
31.22
27.54
24.01
19.93
14.57
7.52
-1.01
-10.12
-18.47
-24.76
-28.19
-28.86
-27.81
-26.77
-27.59
-31.66
-39.45
-50.18
-61.98
-72.28
-78.50
-78.82
-72.71
-61.11
-46.12
-30.41
-16.42
-5.82
0.90
4.31
5.68
6.29
6.91
7.47
7.13
4.80
-0.24
-7.93
-17.35
-26.97
-35.07
-40.10
-40.68
-35.69
-24.44
-7.13
14.82
38.61
60.71
77.85
87.90
90.36
85.97
76.16
62.42
46.15
28.90
12.57
-0.75
-9.27
-12.18
-9.92
-3.92
4.00
12.37
20.28
27.34
33.22
37.51
39.75
39.73
37.82
35.02
32.61
31.77
33.02
36.00
39.60
42.33
42.83
40.35
34.94
27.38
18.83
10.51
3.30
-2.26
-6.05
-8.22
-9.15
-9.47
-9.96
-11.33
-13.94
-17.58
-21.45
-24.41
-25.38
-23.74
-19.47
-13.13
-5.64
1.98
8.70
13.78
16.81
17.81
17.25
15.85
14.26
12.79
11.28
9.24
6.30
2.57
-1.25
-4.20
-5.51
-5.20
-4.16
-3.81
-5.51
-9.88
-16.53
-24.25
-31.53
-37.13
-40.42
-41.37
-40.39
-37.99
-34.70
-30.93
-26.96
-22.98
-19.20
-15.83
-13.12
-11.23
-10.13
-9.49
-8.80
-7.51
-5.28
-2.19
1.32
4.53
6.79
7.64
6.90
4.64
1.06
-3.49
-8.53
-13.42
-17.46
-19.99
-20.60
-19.26
-16.40
-12.83
-9.53
-7.33
-6.59
-7.10
-8.09
-8.63
-8.02
-6.15
-3.49
-0.83
1.15
2.22
2.68
3.12
4.12
6.00
8.76
12.22
16.08
20.00
23.53
26.04
26.82
25.25
21.16
15.00
7.75
0.71
-4.99
-8.65
-10.21
-10.01
-8.50
-5.97
-2.37
2.50
8.75
16.20
24.24
31.99
38.51
43.01
44.97
44.20
40.86
35.41
28.64
21.42
14.58
8.71
4.09
0.71
-1.49
-2.53
-2.32
-0.82
1.84
5.23
8.77
11.86
14.07
15.20
15.20
14.04
11.65
8.02
3.33
-1.93
-6.92
-10.74
-12.60
-12.16
-9.61
-5.67
-1.39
2.22
4.42
4.95
4.04
2.27
0.28
-1.50
-2.95
-4.24
-5.59
-7.10
-8.70
-10.16
-11.23
-11.76
-11.74
-11.27
-10.52
-9.70
-8.99
-8.60
-8.73
-9.59
-11.25
-13.61
-16.28
-18.61
-19.84
-19.28
-16.59
-11.88
-5.76
0.89
7.13
12.23
15.75
17.58
17.86
16.87
14.99
12.60
10.03
7.61
5.58
4.07
3.09
2.45
1.90
1.16
0.10
-1.22
-2.56
-3.58
-4.11
-4.25
-4.39
-5.03
-6.43
-8.47
-10.49
-11.56
-10.84
-7.93
-3.09
2.85
8.79
13.75
17.18
19.02
19.53
19.09
17.95
16.13
13.55
10.13
5.94
1.22
-3.69
-8.50
-13.07
-17.49
-21.91
-26.36
-30.69
-34.53
-37.55
-39.68
-41.34
-43.22
-45.98
-49.77
-54.00
-57.38
-58.44
-56.03
-49.89
-40.70
-29.82
-18.87
-9.24
-1.83
2.99
5.32
5.53
4.19
1.93
-0.66
-3.18
-5.42
-7.37
-9.09
-10.62
-11.92
-12.95
-13.65
-14.03
-14.12
-13.97
-13.61
-13.23
-13.18
-13.90
-15.78
-18.82
-22.44
-25.55
-26.85
-25.34
-20.73
-13.54
-4.94
3.65
11.04
16.47
19.70
20.88
20.34
18.46
15.67
12.39
9.05
5.94
3.19
0.78
-1.38
-3.25
-4.61
-5.14
-4.59
-3.01
-0.80
1.37
2.80
3.01
1.82
-0.68
-4.13
-8.04
-11.78
-14.62
-15.81
-14.77
-11.25
-5.51
1.73
9.46
16.63
22.36
26.10
27.63
27.08
24.72
20.99
16.38
11.39
6.52
2.19
-1.33
-3.95
-5.82
-7.23
-8.55
-10.02
-11.63
-13.13
-14.08
-14.10
-13.07
-11.27
-9.34
-8.02
-7.97
-9.45
-12.28
-15.87
-19.36
-21.86
-22.67
-21.43
-18.18
-13.38
-7.70
-1.89
3.46
7.96
11.47
14.02
15.70
16.63
16.93
16.80
16.45
16.13
15.93
15.77
15.41
14.53
13.01
10.94
8.70
6.73
5.33
4.54
4.06
3.43
2.17
-0.06
-3.37
-7.65
-12.48
-17.22
-21.05
-23.17
-23.04
-20.60
-16.24
-10.73
-4.90
0.59
5.29
8.95
11.38
12.44
12.03
10.28
7.58
4.48
1.60
-0.68
-2.28
-3.35
-4.21
-5.14
-6.32
-7.82
-9.62
-11.60
-13.66
-15.60
-17.27
-18.59
-19.62
-20.53
-21.55
-22.72
-23.81
-24.25
-23.30
-20.38
-15.30
-8.41
-0.47
7.57
14.85
20.70
24.74
26.73
26.66
24.67
21.15
16.68
11.97
7.65
4.14
1.58
-0.11
-1.12
-1.71
-2.13
-2.62
-3.38
-4.45
-5.79
-7.31
-9.01
-11.01
-13.59
-16.87
-20.71
-24.50
-27.27
-27.97
-25.80
-20.49
-12.37
-2.27
8.71
19.41
28.80
36.10
40.81
42.81
42.38
40.14
36.92
33.59
30.78
28.75
27.32
25.97
24.10
21.28
17.42
12.78
7.78
2.85
-1.79
-6.14
-10.42
-14.89
-19.74
-25.01
-30.57
-36.05
-40.85
-44.21
-45.32
-43.58
-38.84
-31.51
-22.47
-12.81
-3.58
4.45
10.79
15.15
17.35
17.42
15.61
12.52
9.01
5.96
4.00
3.34
3.78
4.82
5.94
6.78
7.18
7.17
6.89
6.40
5.63
4.34
2.22
-1.02
-5.40
-10.65
-16.17
-21.16
-24.79
-26.36
-25.45
-21.94
-16.07
-8.34
0.49
9.59
18.20
25.71
31.69
36.00
38.71
40.12
40.68
40.88
41.11
41.47
41.79
41.66
40.68
38.66
35.77
32.42
29.09
26.04
23.26
20.41
17.08
12.95
7.87
1.87
-4.82
-11.77
-18.29
-23.45
-26.28
-25.99
-22.33
-15.74
-7.25
1.81
10.19
16.93
21.52
23.76
23.70
21.62
18.04
13.64
9.25
5.59
3.10
1.85
1.51
1.57
1.50
0.89
-0.31
-1.98
-3.80
-5.50
-6.95
-8.29
-9.88
-12.14
-15.32
-19.35
-23.72
-27.56
-29.86
-29.81
-26.98
-21.53
-14.09
-5.64
2.75
10.11
15.66
18.84
19.36
17.16
12.53
6.15
-0.98
-7.72
-13.13
-16.74
-18.70
-19.68
-20.53
-21.87
-23.85
-26.14
-28.19
-29.56
-30.22
-30.57
-31.24
-32.82
-35.59
-39.36
-43.52
-47.15
-49.20
-48.75
-45.21
-38.53
-29.29
-18.52
-7.48
2.73
11.45
18.45
23.88
27.94
30.83
32.66
33.57
33.85
33.89
34.09
34.70
35.71
36.89
37.95
38.67
38.94
38.76
38.13
37.03
35.39
33.11
30.11
26.42
22.18
17.76
13.78
11.03
10.27
11.89
15.75
21.09
26.75
31.55
34.60
35.42
33.94
30.39
25.14
18.65
11.47
4.20
-2.61
-8.58
-13.59
-17.75
-21.32
-24.60
-27.79
-30.96
-34.00
-36.72
-38.92
-40.47
-41.43
-42.04
-42.69
-43.72
-45.26
-47.04
-48.33
-48.16
-45.61
-40.20
-32.16
-22.38
-12.18
-2.85
4.71
10.18
13.67
15.46
15.83
14.96
13.03
10.32
7.28
4.45
2.25
0.87
0.22
0.01
-0.02
0.02
0.20
0.69
1.55
2.66
3.59
3.80
2.84
0.59
-2.57
-5.77
-7.82
-7.63
-4.58
1.23
8.96
17.32
24.97
30.86
34.44
35.67
34.82
32.35
28.76
24.57
20.27
16.24
12.71
9.71
7.12
4.71
2.36
0.07
-2.02
-3.76
-5.05
-6.02
-7.05
-8.68
-11.46
-15.61
-20.80
-26.04
-29.87
-30.86
-28.15
-21.85
-13.10
-3.65
4.80
11.16
15.20
17.42
18.57
19.22
19.48
19.09
17.60
14.69
10.44
5.33
0.20
-4.12
-7.03
-8.59
-9.44
-10.61
-13.13
-17.50
-23.63
-30.94
-38.82
-46.74
-54.12
-60.00
-63.24
-63.25
-60.77
-58.07
-57.89
-61.75
-68.87
-76.30
-80.82
-81.20
-79.37
-79.63
-86.12
-100.32
-119.98
-140.02
-154.69
-159.52
-152.11
-131.74
-98.74
-54.50
-1.72
55.20
110.61
158.82
195.41
218.22
227.44
224.99
213.70
196.66
176.84
156.92
139.12
124.97
115.11
109.48
107.35
107.72
109.53
111.65
112.99
112.52
109.43
103.32
94.27
82.76
69.54
55.48
41.38
27.86
15.28
3.59
-7.52
-18.50
-29.71
-41.28
-52.97
-64.40
-75.10
-84.69
-92.91
-99.54
-104.32
-107.09
-107.74
-106.23
-102.57
-96.69
-88.49
-77.97
-65.26
-50.78
-35.03
-18.50
-1.50
15.83
33.44
51.19
68.77
85.80
101.74
115.93
127.52
135.44
138.64
136.41
128.82
116.88
102.42
87.61
74.26
63.33
54.72
47.50
40.59
33.16
24.98
16.38
7.84
-0.14
-7.22
-12.97
-16.72
-17.60
-14.78
-8.03
1.98
13.76
25.41
35.34
42.78
48.04
52.22
56.71
62.58
70.22
79.29
88.90
97.87
105.01
109.26
109.94
107.01
101.22
93.94
86.51
79.52
72.07
62.18
47.74
27.81
3.40
-22.95
-48.43
-71.32
-91.76
-111.50
-133.00
-158.24
-187.74
-220.15
-252.22
-279.32
-296.33
-299.19
-286.31
-259.42
-223.39
-184.57
-149.14
-121.28
-102.80
-93.40
-91.10
-92.83
-94.32
-90.77
-77.99
-53.89
-19.91
19.20
56.65
85.90
102.67
105.90
97.36
80.76
60.62
41.66
28.03
22.67
26.48
37.93
53.53
69.20
82.39
92.77
102.35
113.91
129.00
147.21
166.05
182.64
194.94
202.24
204.82
202.74
195.44
181.76
160.86
132.99
99.44
62.02
22.20
-19.28
-61.94
-104.95
-146.48
-183.97
-214.82
-237.22
-250.86
-256.78
-257.13
-254.20
-249.89
-245.38
-240.48
-234.36
-225.71
-213.46
-197.31
-177.35
-153.85
-126.81
-96.37
-63.54
-30.75
-1.76
19.65
31.12
32.63
26.37
15.41
2.24
-11.96
-26.90
-42.03
-55.90
-66.00
-70.28
-68.14
-61.16
-52.66
-46.00
-43.89
-47.26
-55.63
-67.55
-80.65
-92.11
-98.64
-97.04
-85.23
-62.98
-32.28
3.30
39.68
73.46
102.55
126.08
144.09
157.18
166.41
173.36
179.89
187.69
197.39
208.18
217.95
224.04
224.65
219.12
208.43
194.37
178.52
161.98
144.70
126.02
104.93
80.56
52.88
23.02
-6.46
-31.88
-49.43
-56.27
-51.52
-36.49
-14.22
11.53
37.26
60.21
78.28
89.80
93.45
88.64
75.86
57.09
35.14
13.10
-6.63
-22.77
-34.92
-43.43
-48.67
-50.85
-49.95
-45.73
-37.81
-25.69
-9.05
11.68
34.71
56.59
72.85
79.39
74.13
57.97
34.53
8.62
-15.59
-35.86
-51.85
-64.29
-73.84
-80.85
-85.52
-88.43
-90.53
-92.50
-94.20
-94.52
-92.24
-87.00
-79.94
-73.46
-70.16
-71.74
-78.34
-88.59
-100.09
-110.13
-116.04
-115.54
-107.29
-91.56
-70.78
-49.23
-31.89
-22.63
-22.81
-30.55
-41.46
-50.23
-52.49
-46.43
-33.07
-15.64
1.95
16.64
27.15
33.90
38.29
41.95
46.15
51.59
58.41
66.04
73.08
77.54
77.25
70.86
58.85
43.69
29.16
18.71
14.02
14.09
15.92
15.86
11.40
2.04
-10.91
-25.31
-39.65
-53.79
-68.89
-86.45
-107.05
-129.66
-151.70
-170.06
-182.24
-187.26
-185.83
-179.80
-171.32
-161.97
-152.35
-142.11
-130.52
-116.96
-101.32
-83.98
-65.44
-46.03
-25.81
-4.73
17.18
39.57
61.75
82.63
100.95
115.68
126.33
133.31
138.00
142.36
148.01
155.33
162.85
167.44
165.43
154.16
133.32
105.41
75.11
47.72
27.45
16.11
12.87
14.92
18.71
21.07
19.89
14.33
4.73
-7.61
-20.54
-31.39
-37.63
-37.76
-32.13
-22.95
-13.40
-6.10
-1.84
0.55
3.23
7.95
14.81
22.46
29.21
34.55
39.75
47.19
58.50
72.74
85.97
92.62
88.04
70.86
43.60
11.61
-19.27
-44.77
-63.48
-76.53
-86.28
-94.84
-103.04
-110.06
-113.82
-111.43
-99.86
-77.00
-42.57
0.96
48.43
93.20
129.24
153.36
166.20
171.40
173.45
175.36
177.64
178.88
177.75
174.54
171.56
171.70
176.52
185.01
193.93
199.30
198.00
188.69
171.71
148.35
120.18
88.72
55.48
22.10
-9.83
-38.99
-64.52
-86.10
-103.90
-118.51
-130.84
-141.95
-152.84
-164.03
-175.27
-185.75
-194.71
-202.35
-210.15
-220.37
-234.58
-251.99
-268.59
-277.82
-272.89
-249.66
-208.56
-154.52
-95.09
-37.59
12.91
54.07
85.29
106.37
116.76
116.15
105.59
88.17
68.65
51.92
41.18
36.74
36.09
35.23
30.42
19.72
3.47
-15.99
-35.20
-50.54
-59.01
-58.77
-49.42
-31.88
-8.27
18.71
46.38
72.63
96.18
116.39
132.80
144.63
150.88
151.12
146.38
139.50
134.31
133.98
139.21
147.35
153.22
151.32
138.44
115.34
86.62
58.87
37.87
26.55
24.07
26.72
29.73
29.32
23.94
14.50
3.41
-6.88
-15.04
-21.28
-26.71
-32.34
-38.54
-45.05
-51.53
-58.22
-66.01
-75.84
-87.90
-101.23
-113.98
-124.21
-130.76
-133.39
-132.40
-128.14
-121.01
-111.76
-101.70
-92.38
-84.89
-78.99
-73.13
-65.27
-54.33
-40.97
-27.52
-16.80
-10.48
-7.93
-6.50
-3.02
4.18
14.07
23.25
27.81
25.54
17.17
6.09
-3.29
-7.65
-6.23
-0.64
6.51
13.17
18.62
23.24
27.44
31.07
33.41
33.79
32.39
30.30
29.12
30.16
33.77
39.00
43.89
46.28
44.75
39.45
32.09
25.36
21.51
21.34
23.67
26.11
26.29
23.15
17.42
10.95
5.53
2.00
0.15
-0.69
-0.83
0.02
2.45
6.81
12.67
19.05
24.77
28.98
31.26
31.46
29.46
25.09
18.36
9.64
-0.31
-10.60
-20.59
-30.13
-39.40
-48.67
-58.13
-67.95
-78.67
-91.42
-107.45
-127.35
-150.20
-173.13
-192.14
-203.36
-204.48
-195.49
-178.24
-155.45
-129.43
-101.79
-73.83
-47.29
-24.49
-7.66
2.37
7.02
9.72
14.34
23.19
35.51
47.70
54.85
52.98
40.66
19.21
-8.33
-39.12
-71.89
-107.45
-148.20
-196.59
-253.41
-316.43
-379.99
-436.55
-479.04
-503.25
-509.11
-499.88
-480.26
-453.91
-422.34
-385.36
-342.59
-294.95
-244.72
-194.79
-147.37
-103.48
-63.34
-27.27
3.43
26.45
39.37
40.92
31.94
15.26
-4.83
-24.05
-39.06
-48.16
-51.35
-50.04
-46.63
-44.35
-46.70
-56.79
-76.28
-104.10
-136.10
-165.57
-185.40
-190.31
-178.64
-152.33
-115.42
-72.33
-26.54
19.63
64.39
105.98
143.03
175.38
204.60
233.58
265.00
299.89
337.08
373.50
405.82
431.57
449.67
460.28
463.85
460.42
449.41
429.91
401.54
365.30
323.93
281.75
243.87
214.63
196.29
188.46
188.38
191.85
194.45
192.53
183.63
166.99
143.80
116.82
89.75
66.06
47.48
33.64
22.34
10.56
-4.26
-23.74
-48.04
-75.86
-104.74
-131.18
-151.10
-160.51
-156.29
-136.90
-102.93
-57.53
-6.34
43.06
82.86
107.33
114.84
108.93
97.34
89.59
93.63
113.10
146.33
186.96
226.09
254.82
266.21
256.77
226.47
178.37
118.04
52.37
-11.51
-67.67
-112.43
-145.04
-167.54
-183.81
-198.17
-213.54
-230.17
-245.23
-253.82
-251.18
-235.23
-208.20
-176.42
-147.81
-128.53
-119.98
-118.28
-116.20
-107.13
-88.77
-64.29
-40.53
-24.31
-18.79
-22.08
-28.33
-30.74
-24.48
-8.20
16.72
47.76
82.77
120.07
157.61
192.00
218.78
234.05
236.60
229.18
217.65
208.48
205.90
210.07
217.39
222.30
219.78
207.23
185.33
157.76
130.20
108.82
98.27
100.14
112.23
129.22
144.75
153.82
154.43
147.57
135.69
120.52
101.98
78.39
48.02
10.83
-30.86
-73.08
-111.62
-143.46
-167.44
-183.83
-193.68
-198.05
-197.75
-193.62
-186.67
-178.19
-169.47
-161.36
-153.94
-146.29
-136.88
-124.02
-106.65
-84.80
-59.38
-31.59
-2.25
28.29
59.39
88.94
112.82
125.77
123.69
106.07
76.93
43.63
13.68
-8.21
-21.60
-29.17
-34.37
-39.15
-43.50
-46.50
-48.02
-49.45
-53.02
-59.98
-69.23
-77.35
-80.22
-75.26
-62.88
-46.31
-29.83
-16.36
-5.93
4.20
17.50
35.69
56.73
74.76
82.14
72.85
45.50
4.86
-39.09
-74.44
-91.49
-86.39
-62.38
-28.17
5.63
30.56
42.91
43.98
38.21
30.58
24.48
21.13
19.95
19.67
19.12
17.58
14.78
10.86
6.38
2.26
-0.06
1.05
7.28
19.82
38.67
61.50
83.35
97.41
97.25
79.70
46.92
6.50
-30.84
-54.84
-59.02
-42.10
-7.29
39.71
92.93
147.20
198.38
242.95
277.84
300.73
310.67
308.39
296.21
277.51
255.88
234.33
214.71
197.48
182.15
167.71
153.31
138.33
122.13
103.47
80.25
49.98
10.92
-36.71
-90.03
-143.91
-192.48
-230.86
-256.50
-269.56
-272.52
-269.33
-264.34
-261.24
-262.15
-267.09
-274.08
-279.99
-281.98
-278.61
-270.23
-258.13
-243.46
-226.34
-206.07
-182.15
-155.47
-128.65
-105.16
-87.72
-76.83
-70.33
-64.37
-54.96
-39.54
-17.69
9.27
39.23
70.34
101.49
132.20
162.22
191.05
217.77
241.17
260.05
273.55
281.32
283.61
281.21
275.28
267.03
257.35
246.74
235.38
223.64
212.52
203.78
199.42
200.88
208.19
219.71
232.47
242.93
247.67
243.96
229.96
204.78
168.74
123.60
72.69
20.51
-28.19
-69.66
-102.12
-125.97
-143.28
-156.63
-167.95
-177.96
-186.12
-191.27
-192.39
-189.30
-182.87
-174.78
-166.93
-160.78
-156.73
-154.05
-151.28
-146.90
-140.12
-131.17
-121.14
-111.25
-102.23
-93.86
-85.23
-75.28
-63.58
-50.77
-38.48
-28.82
-23.68
-24.00
-29.48
-38.70
-49.60
-60.21
-69.20
-76.21
-81.77
-86.91
-92.73
-100.08
-109.16
-119.40
-129.46
-137.58
-141.98
-141.62
-136.75
-129.23
-122.45
-120.62
-127.44
-144.49
-169.99
-198.55
-222.58
-234.70
-230.34
-209.41
-176.04
-136.68
-97.48
-62.28
-32.12
-6.39
15.64
33.80
47.26
55.80
60.82
65.51
73.69
87.87
107.88
130.55
151.05
165.08
170.72
169.13
163.58
157.58
153.22
150.65
148.88
147.16
145.98
146.87
151.12
158.44
166.52
171.92
171.78
165.30
154.06
140.95
128.54
117.87
108.30
98.27
86.43
72.49
57.28
42.29
29.05
18.74
11.94
8.70
8.65
11.20
15.77
21.85
29.01
36.67
43.97
49.79
53.03
53.04
49.95
44.67
38.50
32.67
27.92
24.35
21.69
19.63
18.12
17.35
17.54
18.64
20.20
21.52
21.98
21.41
20.23
19.14
18.83
19.45
20.48
20.86
19.29
14.55
5.78
-7.33
-24.38
-44.13
-64.48
-82.76
-96.23
-102.87
-102.25
-95.87
-87.12
-80.39
-79.85
-88.42
-107.27
-136.17
-174.24
-220.26
-272.29
-326.73
-377.83
-418.27
-441.10
-442.22
-422.11
-385.63
-339.93
-291.63
-244.80
-200.69
-159.01
-119.68
-83.89
-53.83
-31.47
-17.50
-10.97
-9.84
-12.02
-15.85
-20.30
-24.45
-27.14
-26.98
-22.60
-13.21
1.13
19.59
40.86
63.53
86.33
108.22
128.42
146.34
161.52
173.43
181.37
184.55
182.32
174.61
162.28
146.99
130.79
115.40
101.76
89.81
78.79
67.54
54.84
39.69
21.50
0.52
-21.85
-42.92
-59.17
-67.05
-63.94
-49.03
-23.74
8.54
42.92
74.11
97.59
110.68
113.16
107.21
96.52
84.96
75.33
68.76
64.98
63.01
61.95
61.31
60.91
60.66
60.35
59.75
58.72
57.22
55.23
52.48
48.36
42.06
32.88
20.76
6.62
-7.62
-19.56
-27.02
-28.91
-25.56
-18.53
-9.86
-1.30
6.25
12.62
17.90
21.93
24.18
24.05
21.41
16.95
11.98
8.06
6.53
8.16
12.98
20.13
27.63
32.49
31.29
21.17
1.00
-27.94
-62.17
-97.06
-128.31
-153.10
-170.41
-180.61
-184.50
-182.71
-175.48
-163.00
-145.92
-125.59
-103.99
-83.20
-64.96
-50.19
-38.97
-30.83
-25.19
-21.77
-20.70
-22.30
-26.70
-33.46
-41.50
-49.31
-55.29
-58.17
-57.29
-52.58
-44.35
-32.96
-18.64
-1.53
18.10
39.50
61.28
81.55
98.26
109.74
115.19
114.90
110.20
102.92
94.88
87.33
80.77
75.10
69.95
65.06
60.47
56.40
52.99
50.07
47.19
43.85
39.88
35.54
31.37
27.93
25.30
23.11
20.58
16.91
11.68
4.98
-2.55
-10.02
-16.57
-21.66
-25.31
-27.99
-30.36
-32.87
-35.41
-37.30
-37.50
-35.15
-30.09
-23.00
-15.20
-8.03
-2.24
2.36
6.72
12.01
18.87
26.89
34.65
40.23
41.91
38.84
31.29
20.50
8.16
-4.01
-14.58
-22.40
-26.61
-26.63
-22.44
-14.79
-5.25
4.14
11.38
15.31
15.79
13.76
10.72
8.19
7.09
7.57
8.98
10.28
10.51
9.10
6.11
1.93
-3.04
-8.67
-15.16
-22.65
-30.89
-39.13
-46.38
-51.88
-55.48
-57.60
-58.71
-58.75
-56.94
-52.02
-43.03
-29.90
-13.66
3.93
21.00
36.09
48.31
57.12
62.17
63.26
60.59
55.02
48.11
41.64
36.97
34.38
32.89
30.78
26.40
19.05
9.32
-1.19
-10.60
-17.49
-21.36
-22.64
-22.33
-21.60
-21.43
-22.53
-25.26
-29.60
-35.17
-41.32
-47.31
-52.57
-56.94
-60.65
-64.10
-67.44
-70.32
-71.80
-70.59
-65.45
-55.59
-40.89
-21.88
0.60
25.67
52.48
80.08
107.19
132.07
152.86
168.02
176.88
179.91
178.48
174.35
169.14
163.92
159.04
154.17
148.48
140.88
130.35
116.40
99.37
80.65
62.35
46.69
35.27
28.45
25.14
23.11
19.74
12.91
1.60
-13.85
-31.91
-50.47
-67.43
-81.21
-90.98
-96.61
-98.43
-97.21
-94.02
-90.07
-86.53
-84.20
-83.22
-82.90
-81.86
-78.27
-70.40
-57.27
-39.15
-17.67
4.42
24.19
39.46
49.51
55.04
57.51
58.23
57.69
55.57
51.30
44.73
36.44
27.46
18.68
10.38
2.26
-6.27
-15.59
-25.61
-35.87
-45.64
-54.20
-61.01
-65.84
-68.97
-71.32
-74.37
-79.75
-88.59
-100.89
-115.36
-129.74
-141.55
-148.92
-150.95
-147.71
-139.79
-127.97
-113.15
-96.42
-79.38
-64.32
-54.12
-51.84
-59.95
-79.43
-109.29
-146.41
-186.13
-223.34
-253.59
-274.17
-284.45
-285.69
-280.27
-270.86
-259.56
-247.36
-234.04
-218.44
-198.96
-174.24
-143.72
-107.90
-67.96
-25.38
18.77
64.23
111.39
160.60
210.97
259.63
301.82
332.13
346.51
343.97
327.09
301.11
271.95
244.17
219.92
199.14
180.71
163.59
147.28
131.61
116.10
99.56
80.47
57.71
31.36
2.94
-25.11
-50.40
-71.85
-90.08
-106.76
-123.14
-138.39
-149.16
-150.50
-138.07
-110.33
-69.63
-21.53
27.17
70.57
105.26
130.64
148.19
160.44
170.10
179.49
190.29
203.30
218.32
234.27
249.54
262.76
273.26
281.65
289.46
298.51
309.77
322.29
332.99
337.33
330.93
311.35
279.13
237.28
189.93
140.53
90.86
41.33
-7.81
-55.22
-98.27
-133.72
-159.36
-175.21
-183.82
-189.52
-197.14
-210.89
-233.20
-263.67
-298.17
-328.98
-346.31
-341.62
-311.52
-260.14
-198.70
-142.14
-104.18
-93.09
-109.56
-147.24
-195.28
-241.36
-274.52
-286.94
-274.81
-238.23
-180.43
-106.98
-25.12
56.34
127.24
177.20
197.57
184.01
138.26
68.05
-15.08
-99.05
-174.10
-233.97
-275.56
-298.07
-302.24
-290.00
-264.52
-229.99
-190.90
-151.14
-113.33
-78.53
-46.22
-14.84
17.35
51.13
85.45
117.40
143.28
160.34
168.31
169.61
168.43
168.28
170.48
173.58
174.59
171.03
162.26
149.72
135.74
122.07
109.10
96.19
82.70
68.91
56.14
46.15
40.19
38.34
39.58
42.29
44.99
46.82
47.58
47.63
47.68
48.68
51.63
57.30
65.90
76.82
88.69
99.68
108.28
113.55
115.34
113.90
109.35
101.56
90.32
75.86
59.15
41.89
25.84
12.22
1.12
-8.37
-17.50
-27.06
-36.73
-45.06
-50.14
-50.52
-46.00
-37.89
-28.67
-21.17
-17.60
-18.92
-24.64
-33.18
-42.73
-51.93
-60.36
-68.40
-76.60
-85.05
-92.96
-98.83
-101.00
-98.27
-90.19
-76.97
-59.55
-39.86
-21.37
-9.01
-8.23
-22.88
-52.80
-92.46
-131.71
-158.76
-164.24
-144.41
-102.17
-45.61
15.08
70.59
114.38
142.90
155.03
151.69
135.66
111.65
85.69
63.68
49.48
43.64
43.62
45.42
45.85
43.92
40.67
37.84
36.25
35.21
33.13
28.83
22.54
15.82
10.49
7.51
6.33
5.44
3.05
-1.70
-8.42
-15.63
-21.39
-24.13
-23.29
-19.54
-14.55
-10.21
-7.87
-7.87
-9.54
-11.76
-13.67
-15.06
-16.29
-17.95
-20.42
-23.75
-27.77
-32.36
-37.57
-43.50
-50.16
-57.36
-64.65
-71.63
-77.87
-82.97
-86.40
-87.29
-84.71
-77.78
-66.21
-50.51
-32.05
-12.71
5.64
21.62
34.61
44.70
52.49
58.61
63.53
67.35
69.95
71.08
70.57
68.32
64.40
58.96
52.31
44.89
37.20
29.79
23.16
17.71
13.85
11.83
11.79
13.57
16.63
20.11
22.99
24.46
24.20
22.47
19.93
17.31
15.01
12.95
10.68
7.69
3.74
-1.02
-6.11
-10.92
-14.95
-18.02
-20.26
-22.32
-25.12
-29.56
-36.17
-44.57
-53.48
-61.01
-65.52
-66.39
-64.34
-61.19
-59.10
-59.77
-63.89
-70.90
-79.18
-86.24
-89.18
-85.22
-72.58
-51.16
-22.92
8.46
38.60
63.63
81.17
90.49
92.24
87.84
79.06
67.86
56.39
46.55
39.56
35.33
32.42
28.69
22.31
12.93
2.01
-7.56
-12.70
-11.36
-3.37
9.57
24.52
38.38
48.75
54.43
55.32
52.05
45.50
36.58
26.16
15.07
4.26
-5.30
-12.80
-17.74
-20.15
-20.43
-19.24
-17.28
-14.96
-12.54
-10.04
-7.37
-4.48
-1.35
2.02
5.67
9.70
14.28
19.45
24.97
30.35
34.85
37.72
38.37
36.39
31.50
23.69
13.35
1.44
-10.56
-20.91
-28.31
-32.29
-33.37
-32.66
-31.17
-29.45
-27.34
-24.34
-20.11
-14.76
-9.03
-4.09
-1.25
-1.57
-5.58
-13.02
-22.86
-33.45
-42.89
-49.45
-51.90
-49.58
-42.39
-30.85
-16.07
0.16
15.58
27.82
35.07
36.67
33.32
26.92
19.83
14.09
10.76
9.74
10.11
10.70
10.63
9.68
8.09
6.35
4.79
3.43
2.02
0.30
-1.80
-4.11
-6.21
-7.66
-8.09
-7.31
-5.22
-1.84
2.74
8.26
14.33
20.36
25.78
29.98
32.52
33.15
31.84
28.81
24.53
19.66
14.91
10.91
8.05
6.46
6.04
6.51
7.51
8.59
9.21
8.74
6.61
2.42
-3.75
-11.31
-19.21
-26.24
-31.42
-34.26
-34.79
-33.31
-30.21
-25.76
-20.11
-13.47
-6.22
1.01
7.62
13.18
17.67
21.36
24.58
27.45
29.77
31.10
31.05
29.54
26.95
23.91
21.08
18.85
17.18
15.81
14.49
13.27
12.49
12.68
14.19
17.00
20.62
24.19
26.67
27.21
25.34
21.19
15.59
9.90
5.64
4.08
5.77
10.47
17.25
24.94
32.49
39.23
44.83
49.11
51.94
53.20
52.75
50.58
46.75
41.32
34.35
25.84
15.88
4.76
-6.93
-18.37
-28.57
-36.68
-42.10
-44.71
-44.92
-43.56
-41.77
-40.65
-40.95
-42.82
-45.79
-48.93
-51.20
-51.74
-50.09
-46.24
-40.50
-33.41
-25.63
-17.90
-10.98
-5.47
-1.77
0.01
-0.09
-1.83
-4.88
-8.74
-12.73
-16.01
-17.82
-17.72
-15.78
-12.50
-8.63
-4.85
-1.68
0.65
2.02
2.38
1.67
-0.14
-2.91
-6.29
-9.71
-12.46
-13.82
-13.33
-10.89
-6.88
-2.03
2.84
7.05
10.27
12.48
13.93
14.88
15.56
16.08
16.48
16.81
17.15
17.61
18.27
19.03
19.65
19.66
18.54
15.90
11.71
6.28
0.26
-5.63
-10.72
-14.62
-17.25
-18.88
-20.01
-21.23
-23.05
-25.66
-28.85
-32.03
-34.48
-35.50
-34.70
-32.04
-27.81
-22.54
-16.88
-11.52
-7.09
-4.10
-2.75
-2.97
-4.47
-6.79
-9.45
-12.03
-14.17
-15.60
-16.15
-15.73
-14.40
-12.35
-9.83
-7.16
-4.59
-2.33
-0.61
0.37
0.42
-0.52
-2.34
-4.64
-6.79
-8.16
-8.20
-6.67
-3.63
0.58
5.53
10.71
15.61
19.66
22.33
23.23
22.19
19.47
15.71
11.80
8.52
6.29
4.98
3.93
2.28
-0.68
-5.21
-11.04
-17.44
-23.53
-28.57
-32.16
-34.27
-35.18
-35.30
-35.10
-35.01
-35.45
-36.80
-39.28
-42.68
-46.33
-49.11
-49.79
-47.47
-41.94
-33.69
-23.72
-13.24
-3.36
4.84
10.28
11.94
9.09
1.80
-8.61
-19.45
-27.29
-29.01
-23.02
-9.93
7.57
25.64
40.72
50.69
55.17
55.17
52.07
46.87
39.91
31.32
21.61
12.02
4.23
-0.28
-0.87
2.15
7.86
15.41
24.47
35.21
47.89
62.22
77.07
90.63
101.03
107.10
108.82
107.23
103.90
100.16
96.51
92.60
87.50
80.36
70.86
59.26
46.16
32.12
17.51
2.48
-12.86
-28.32
-43.58
-58.24
-71.87
-83.92
-93.69
-100.30
-102.93
-101.07
-94.92
-85.46
-74.22
-63.00
-53.22
-45.70
-40.58
-37.41
-35.59
-34.48
-33.60
-32.57
-31.09
-28.95
-26.27
-23.63
-21.98
-22.23
-24.79
-29.11
-33.88
-37.48
-38.76
-37.50
-34.43
-30.74
-27.46
-25.02
-23.29
-21.80
-20.14
-17.99
-15.27
-12.00
-8.26
-4.34
-0.62
2.50
4.83
6.63
8.58
11.50
16.03
22.30
29.88
38.01
45.86
52.76
58.21
61.83
63.24
62.17
58.59
52.85
45.70
38.04
30.60
23.74
17.36
11.04
4.29
-3.26
-11.75
-20.97
-30.32
-38.68
-44.52
-46.24
-42.69
-33.82
-20.95
-6.48
6.89
17.23
23.94
27.77
30.19
32.42
34.87
37.07
38.27
38.04
36.69
34.99
33.66
32.91
32.29
31.09
28.87
25.77
22.53
20.02
18.82
18.94
19.81
20.63
20.68
19.60
17.33
14.15
10.42
6.56
3.01
0.17
-1.61
-2.15
-1.51
-0.09
1.48
2.41
2.08
0.17
-3.19
-7.50
-11.99
-15.83
-18.30
-18.92
-17.61
-14.74
-11.08
-7.62
-5.28
-4.62
-5.63
-7.88
-10.71
-13.55
-16.17
-18.66
-21.34
-24.54
-28.47
-33.15
-38.23
-42.89
-45.82
-45.38
-40.19
-29.65
-14.31
4.21
23.65
41.84
57.18
68.73
76.12
79.37
78.69
74.63
68.07
60.18
52.13
44.71
38.20
32.40
26.95
21.67
16.63
12.02
7.87
3.89
-0.49
-5.88
-12.59
-20.48
-28.96
-37.25
-44.80
-51.47
-57.64
-63.94
-70.92
-78.64
-86.44
-93.04
-96.82
-96.30
-90.53
-79.37
-63.45
-44.14
-23.44
-3.68
12.90
24.65
31.08
32.90
31.63
28.76
25.06
20.32
13.81
4.95
-6.08
-18.29
-30.21
-40.54
-48.58
-54.35
-58.31
-60.93
-62.36
-62.05
-59.05
-52.30
-41.16
-25.88
-7.64
11.76
30.45
47.07
60.92
71.83
79.90
85.31
88.35
89.32
88.24
84.59
77.25
65.04
47.72
26.61
4.60
-15.01
-30.09
-40.57
-48.39
-56.34
-66.36
-78.52
-90.98
-100.79
-105.20
-102.41
-92.04
-75.00
-53.31
-29.59
-6.59
13.50
29.50
41.39
49.91
55.80
59.29
60.09
57.94
53.26
47.39
42.28
39.69
40.37
43.74
48.22
51.87
53.32
52.06
48.46
43.38
37.58
31.49
25.05
18.03
10.31
2.17
-5.74
-12.53
-17.45
-20.19
-21.02
-20.72
-20.17
-19.99
-20.27
-20.57
-20.21
-18.65
-15.86
-12.44
-9.43
-7.95
-8.77
-11.99
-17.09
-23.09
-28.85
-33.34
-35.76
-35.65
-32.81
-27.26
-19.16
-8.86
3.02
15.52
27.35
37.08
43.46
45.86
44.42
40.04
34.00
27.53
21.39
15.86
10.91
6.53
3.02
0.91
0.78
2.93
7.25
13.22
20.11
27.28
34.20
40.48
45.66
49.07
49.87
47.26
41.01
31.68
20.62
9.66
0.47
-6.02
-9.74
-11.26
-11.34
-10.46
-8.77
-6.25
-3.07
0.23
2.91
4.27
3.92
1.98
-1.03
-4.45
-7.56
-9.84
-10.94
-10.73
-9.29
-6.83
-3.72
-0.37
2.74
5.03
5.92
4.88
1.68
-3.46
-9.88
-16.58
-22.55
-27.00
-29.51
-30.09
-29.08
-27.00
-24.46
-22.04
-20.19
-19.20
-19.10
-19.71
-20.84
-22.32
-24.09
-26.17
-28.41
-30.39
-31.43
-30.76
-27.89
-22.84
-16.29
-9.36
-3.25
1.05
3.06
2.85
0.94
-1.81
-4.39
-5.79
-5.21
-2.23
3.11
10.32
18.59
26.93
34.44
40.40
44.45
46.51
46.75
45.45
42.88
39.31
35.08
30.68
26.78
24.07
23.08
23.97
26.41
29.70
32.92
35.33
36.43
36.12
34.52
31.90
28.49
24.44
19.83
14.82
9.62
4.57
-0.01
-3.95
-7.22
-9.91
-12.07
-13.62
-14.35
-14.08
-12.84
-11.03
-9.34
-8.49
-8.94
-10.61
-12.89
-14.83
-15.57
-14.64
-12.16
-8.76
-5.28
-2.44
-0.65
0.08
-0.05
-0.77
-1.82
-3.06
-4.38
-5.65
-6.72
-7.44
-7.70
-7.49
-6.91
-6.09
-5.26
-4.58
-4.23
-4.36
-5.16
-6.77
-9.26
-12.54
-16.24
-19.74
-22.29
-23.23
-22.18
-19.17
-14.67
-9.40
-4.15
0.34
3.59
5.35
5.70
5.00
3.80
2.71
2.18
2.35
3.00
3.65
3.77
2.93
1.03
-1.75
-4.97
-8.12
-10.70
-12.38
-13.10
-13.09
-12.79
-12.68
-13.09
-14.06
-15.27
-16.23
-16.42
-15.50
-13.39
-10.27
-6.37
-1.89
3.06
8.38
13.76
18.70
22.46
24.43
24.31
22.34
19.21
15.84
13.04
11.24
10.44
10.29
10.28
9.89
8.79
6.87
4.24
1.22
-1.89
-4.91
-7.95
-11.42
-15.76
-21.23
-27.57
-33.99
-39.35
-42.58
-42.99
-40.55
-35.79
-29.55
-22.69
-15.86
-9.38
-3.39
2.07
6.89
10.95
14.09
16.25
17.50
18.02
17.97
17.47
16.52
15.08
13.24
11.21
9.40
8.24
8.06
8.92
10.59
12.67
14.65
16.03
16.36
15.36
12.94
9.33
5.11
1.09
-1.89
-3.23
-2.70
-0.45
3.09
7.45
12.16
16.88
21.39
25.56
29.38
32.82
35.79
38.07
39.29
39.07
37.20
33.69
28.78
22.82
16.07
8.65
0.61
-7.90
-16.54
-24.72
-31.84
-37.34
-40.98
-42.86
-43.44
-43.32
-43.01
-42.65
-41.93
-40.17
-36.65
-31.05
-23.72
-15.58
-7.85
-1.45
3.40
7.20
10.80
14.94
19.63
24.15
27.29
27.87
25.27
19.68
11.95
3.19
-5.56
-13.60
-20.53
-26.04
-29.79
-31.40
-30.63
-27.58
-22.83
-17.29
-12.07
-8.08
-5.87
-5.59
-7.01
-9.66
-12.92
-16.15
-18.72
-19.98
-19.41
-16.62
-11.56
-4.63
3.32
11.12
17.59
21.82
23.44
22.57
19.80
15.88
11.68
8.02
5.64
5.03
6.35
9.24
12.91
16.35
18.62
19.21
18.11
15.74
12.67
9.44
6.38
3.57
0.92
-1.79
-4.80
-8.21
-11.87
-15.28
-17.68
-18.21
-16.31
-12.02
-5.97
0.70
6.81
11.46
14.30
15.47
15.32
14.23
12.42
9.94
6.90
3.58
0.51
-1.59
-2.10
-0.74
2.28
6.22
10.10
12.98
14.31
14.05
12.57
10.43
8.05
5.63
3.15
0.54
-2.25
-5.08
-7.70
-9.83
-11.31
-12.08
-12.14
-11.50
-10.14
-8.08
-5.35
-2.12
1.34
4.71
7.63
9.76
10.76
10.38
8.45
5.00
0.32
-5.07
-10.50
-15.31
-18.99
-21.25
-22.07
-21.66
-20.29
-18.30
-15.96
-13.53
-11.22
-9.19
-7.45
-5.74
-3.50
0.04
5.73
14.10
25.18
38.29
52.20
65.36
76.34
84.05
87.93
87.83
83.85
76.20
65.12
50.99
34.50
16.69
-1.02
-17.20
-30.74
-41.04
-48.15
-52.61
-55.18
-56.58
-57.32
-57.68
-57.68
-57.19
-56.06
-54.14
-51.46
-48.29
-45.15
-42.73
-41.65
-42.21
-44.11
-46.27
-46.95
-44.16
-36.32
-22.92
-4.93
15.32
34.84
50.80
61.49
66.50
66.57
62.94
56.75
48.80
39.67
30.03
20.86
13.36
8.67
7.38
9.45
14.18
20.49
27.11
32.85
36.71
37.95
36.23
31.58
24.37
15.18
4.70
-6.22
-16.56
-25.03
-30.23
-30.98
-26.81
-18.21
-6.72
5.56
16.52
24.72
29.54
31.18
30.14
26.98
22.14
16.06
9.45
3.29
-1.41
-3.95
-4.38
-3.43
-2.20
-1.57
-1.86
-2.75
-3.59
-3.91
-3.73
-3.56
-4.05
-5.62
-8.18
-11.20
-13.93
-15.79
-16.57
-16.44
-15.74
-14.82
-13.87
-12.91
-11.96
-11.12
-10.58
-10.54
-11.06
-12.00
-13.08
-13.97
-14.44
-14.44
-14.02
-13.33
-12.52
-11.72
-11.06
-10.63
-10.51
-10.68
-11.10
-11.76
-12.74
-14.15
-16.02
-18.16
-20.07
-21.11
-20.68
-18.52
-14.87
-10.39
-5.86
-1.95
0.99
2.89
3.83
3.90
3.17
1.84
0.31
-0.83
-0.99
0.14
2.42
5.26
7.92
9.73
10.39
9.94
8.63
6.75
4.49
1.86
-1.17
-4.60
-8.28
-11.89
-14.90
-16.74
-16.87
-14.98
-11.13
-5.79
0.23
6.03
10.79
13.93
15.25
14.82
12.96
10.12
6.81
3.50
0.59
-1.59
-2.87
-3.23
-2.83
-2.00
-1.11
-0.53
-0.46
-0.88
-1.62
-2.49
-3.45
-4.72
-6.62
-9.39
-12.91
-16.55
-19.33
-20.30
-18.88
-15.21
-10.09
-4.70
-0.16
2.82
4.23
4.74
5.46
7.54
11.74
18.18
26.24
34.90
43.03
49.73
54.33
56.39
55.61
51.94
45.70
37.61
28.53
18.91
8.48
-3.69
-18.56
-36.26
-55.58
-74.08
-88.89
-97.64
-99.29
-94.35
-84.55
-72.18
-59.49
-48.21
-39.34
-33.14
-29.37
-27.67
-27.89
-30.10
-34.42
-40.44
-47.07
-52.73
-56.14
-57.02
-56.36
-55.82
-56.90
-59.98
-64.20
-68.14
-70.84
-72.42
-73.82
-75.90
-78.28
-79.01
-75.10
-63.91
-44.74
-19.74
6.22
26.98
37.14
34.10
18.85
-4.48
-30.37
-53.95
-72.49
-85.74
-95.25
-103.03
-110.14
-115.99
-118.43
-114.82
-103.47
-84.53
-60.13
-33.44
-7.40
16.21
36.74
53.57
65.03
68.31
60.77
42.18
16.49
-8.27
-22.01
-15.95
14.37
67.77
137.89
215.14
289.02
350.27
392.22
411.32
407.24
382.41
341.42
290.47
236.60
186.82
146.88
120.17
107.05
104.94
109.17
114.45
116.36
112.60
103.24
90.07
75.44
60.95
46.99
33.06
18.92
5.50
-4.75
-8.63
-3.88
9.37
27.92
46.17
58.09
59.38
48.87
28.65
2.98
-23.10
-45.24
-60.33
-66.83
-64.52
-54.21
-37.66
-17.04
5.03
25.81
42.79
53.93
58.30
56.15
48.86
38.32
25.99
12.25
-3.69
-23.42
-48.48
-79.67
-116.55
-157.49
-200.03
-241.09
-277.21
-304.55
-319.17
-317.79
-298.78
-263.46
-216.70
-166.91
-124.22
-97.79
-92.76
-107.74
-134.97
-162.33
-177.33
-171.05
-140.79
-90.63
-29.59
31.54
83.47
120.21
139.37
140.98
126.33
97.47
57.45
11.00
-35.25
-73.62
-97.38
-102.84
-90.82
-66.49
-37.43
-10.87
9.13
22.97
35.07
51.39
76.56
111.36
152.13
192.49
225.96
248.20
257.79
255.49
243.32
223.93
200.74
177.81
159.12
147.01
140.80
136.79
129.98
116.62
95.81
69.49
40.69
11.63
-17.38
-47.39
-79.39
-113.10
-146.67
-177.58
-203.68
-224.00
-238.54
-247.48
-250.15
-244.60
-228.06
-198.06
-153.95
-97.66
-33.73
32.09
94.77
151.46
201.58
245.41
282.14
308.95
321.90
318.31
299.45
271.64
244.82
228.84
229.52
246.41
273.36
301.59
323.44
334.79
335.14
326.17
309.78
287.18
259.22
227.30
193.87
161.85
133.41
108.81
86.39
63.52
38.15
9.73
-20.79
-51.59
-80.67
-106.30
-127.28
-143.17
-154.96
-165.49
-178.95
-199.42
-229.17
-267.73
-312.24
-358.38
-401.68
-438.15
-464.24
-476.77
-473.42
-453.46
-418.40
-371.79
-317.73
-259.04
-196.39
-129.06
-57.14
16.22
84.09
137.36
167.81
171.24
148.90
106.57
51.79
-9.26
-73.52
-140.11
-207.60
-271.69
-324.65
-357.80
-365.16
-346.34
-306.32
-252.71
-192.07
-128.18
-63.02
0.37
55.57
93.07
103.28
80.56
26.35
-50.50
-135.91
-214.20
-271.45
-298.23
-291.45
-255.07
-199.44
-138.74
-86.92
-53.69
-42.28
-49.91
-70.36
-96.68
-122.58
-142.53
-151.32
-144.23
-118.47
-74.67
-17.34
46.34
109.30
167.55
221.41
274.52
330.76
390.86
450.62
501.40
533.11
538.05
513.93
464.61
398.48
325.23
252.96
187.00
130.31
84.57
50.84
29.04
17.30
11.80
7.88
1.87
-7.74
-20.37
-34.50
-48.99
-63.99
-80.99
-102.14
-129.37
-163.46
-203.41
-246.26
-287.38
-321.43
-343.82
-351.94
-346.01
-328.65
-303.74
-274.92
-244.38
-212.36
-177.68
-139.19
-97.00
-53.27
-11.62
24.49
53.53
76.89
98.40
122.65
153.19
190.92
233.95
277.90
316.82
344.19
354.15
342.96
310.54
261.19
202.99
145.56
97.24
62.71
42.27
32.62
28.61
24.99
17.75
4.66
-14.67
-39.07
-66.01
-92.22
-113.96
-127.73
-131.10
-123.28
-105.68
-81.57
-55.41
-31.78
-14.11
-4.12
-1.55
-4.66
-11.09
-18.57
-25.60
-31.34
-35.53
-38.08
-38.98
-38.38
-36.82
-35.41
-35.50
-37.93
-42.09
-45.50
-44.42
-35.30
-16.56
10.39
41.71
72.79
100.34
123.47
143.13
160.26
173.85
180.16
173.68
149.25
104.46
41.39
-33.00
-107.77
-170.00
-207.50
-211.88
-181.12
-120.63
-42.71
36.22
99.67
135.44
138.89
114.26
73.40
32.18
5.64
3.38
27.11
70.92
124.17
175.50
216.02
240.30
245.83
231.74
198.18
146.81
81.79
10.29
-58.56
-115.92
-156.12
-178.30
-186.26
-186.43
-184.63
-183.77
-183.10
-179.47
-169.64
-152.40
-129.17
-103.18
-77.72
-54.70
-34.25
-15.35
3.03
20.95
37.33
50.38
58.19
59.46
54.14
43.87
31.89
22.49
19.71
26.09
41.62
63.67
87.83
109.32
124.27
130.45
127.29
115.46
96.50
72.65
46.80
22.22
1.94
-12.11
-19.67
-21.93
-20.71
-17.44
-12.57
-5.77
3.21
13.89
24.82
34.02
39.78
41.29
38.97
34.42
29.96
27.96
30.11
36.93
47.62
60.25
72.38
81.57
85.76
83.40
73.42
55.58
30.83
1.57
-28.65
-56.04
-77.61
-92.01
-99.50
-101.39
-99.06
-93.15
-83.51
-69.59
-51.42
-30.37
-9.32
7.86
17.61
17.96
9.22
-6.19
-24.90
-43.81
-61.02
-75.66
-87.14
-94.41
-95.93
-90.41
-77.83
-59.89
-39.55
-19.85
-2.72
11.55
23.78
34.93
45.12
53.39
58.36
59.26
56.49
51.53
45.89
39.96
32.36
20.53
2.15
-23.15
-52.89
-82.08
-104.90
-116.68
-115.39
-101.80
-78.99
-51.42
-24.22
-2.55
9.39
9.89
0.98
-11.54
-19.98
-18.17
-4.54
16.91
38.55
53.12
57.12
51.98
42.10
31.72
22.40
12.85
0.93
-13.92
-29.27
-40.35
-41.99
-30.99
-7.53
24.86
60.47
93.20
118.05
132.03
134.28
125.61
107.87
83.37
54.63
24.35
-4.50
-29.05
-46.98
-57.39
-61.21
-61.27
-61.40
-65.13
-74.22
-87.72
-101.95
-111.60
-111.59
-99.34
-76.37
-48.61
-24.82
-13.41
-18.64
-38.15
-63.16
-81.63
-83.33
-63.94
-26.55
20.34
66.78
104.99
130.95
143.85
144.62
135.26
119.35
102.53
91.70
92.37
105.91
128.10
150.55
164.37
164.01
149.52
126.07
101.34
82.18
71.92
68.82
66.32
55.04
26.17
-24.51
-93.80
-171.02
-240.94
-288.73
-304.46
-285.33
-235.39
-163.40
-80.52
1.27
70.30
116.60
133.86
121.39
84.87
35.00
-15.85
-57.44
-84.54
-97.48
-100.71
-100.20
-100.80
-104.84
-112.11
-120.93
-129.33
-136.18
-141.23
-144.48
-145.65
-144.02
-139.04
-131.26
-122.75
-116.60
-115.76
-121.64
-133.56
-149.11
-165.00
-178.03
-185.52
-185.47
-176.64
-158.76
-132.84
-101.19
-66.90
-32.88
-0.96
28.46
56.12
82.97
109.41
135.04
158.92
180.38
199.54
217.29
234.83
252.77
270.44
285.88
296.69
301.24
299.68
293.86
286.46
279.36
272.33
262.73
246.35
218.84
177.06
120.28
50.89
-25.30
-99.40
-160.79
-199.40
-208.63
-187.73
-142.73
-84.96
-27.59
18.22
46.02
54.35
45.17
21.44
-14.39
-60.28
-113.42
-169.12
-221.07
-262.85
-290.03
-301.31
-298.42
-284.55
-262.70
-234.92
-202.57
-167.02
-129.87
-92.54
-55.49
-17.99
21.27
62.73
104.94
144.42
176.62
197.68
205.35
199.18
179.82
148.66
108.13
62.82
20.09
-10.83
-21.72
-9.18
22.94
64.05
100.58
121.26
121.14
102.51
72.66
39.94
10.57
-12.46
-28.66
-38.43
-42.15
-40.08
-33.01
-22.49
-10.51
1.13
11.34
19.70
25.99
29.81
30.40
26.77
17.89
3.04
-17.81
-43.53
-71.39
-97.17
-116.04
-123.99
-119.29
-103.23
-79.62
-53.32
-28.55
-7.81
8.30
20.47
29.88
37.64
44.65
51.54
58.64
65.94
73.13
79.74
85.39
90.03
93.86
97.30
100.78
104.57
108.51
111.45
111.13
104.62
89.88
67.71
43.15
25.00
22.96
43.61
87.21
147.34
213.35
274.54
323.35
356.39
372.99
373.00
355.59
319.57
265.20
195.46
116.29
35.33
-39.87
-103.26
-151.22
-182.67
-198.97
-203.23
-199.37
-191.19
-181.29
-171.24
-162.12
-154.87
-150.72
-150.57
-154.36
-160.83
-167.66
-172.42
-173.06
-168.42
-158.46
-144.07
-127.32
-110.52
-95.66
-83.50
-73.18
-62.98
-51.42
-38.56
-26.12
-16.78
-12.73
-14.27
-19.99
-27.29
-33.67
-37.64
-38.59
-36.82
-33.00
-28.03
-23.25
-19.76
-18.68
-20.64
-25.93
-34.77
-46.91
-61.99
-78.65
-94.52
-106.74
-112.61
-111.13
-103.19
-91.24
-78.37
-66.75
-57.07
-48.37
-38.80
-27.11
-13.70
-1.66
4.11
-1.68
-22.07
-56.12
-99.03
-143.87
-184.55
-218.11
-245.02
-267.89
-288.85
-308.26
-324.63
-335.77
-340.10
-336.63
-324.82
-304.06
-273.88
-234.75
-188.35
-137.48
-85.11
-33.30
16.95
65.89
114.51
164.07
215.53
268.46
320.67
367.99
405.45
429.10
437.56
432.79
419.26
402.13
385.35
370.59
357.40
344.18
329.49
312.71
294.16
274.94
256.52
240.36
227.50
218.02
210.79
203.72
194.42
181.23
163.90
143.59
122.22
101.53
82.32
64.51
47.55
31.02
14.99
-0.10
-13.80
-26.05
-37.16
-47.60
-57.57
-66.72
-74.28
-79.35
-81.43
-80.73
-78.13
-74.88
-72.14
-70.54
-70.16
-70.53
-70.88
-70.44
-68.54
-64.81
-59.16
-51.92
-43.79
-35.66
-28.35
-22.38
-17.81
-14.37
-11.69
-9.61
-8.26
-7.91
-8.73
-10.58
-13.05
-15.63
-17.97
-19.98
-21.82
-23.71
-25.76
-27.96
-30.25
-32.59
-34.98
-37.32
-39.32
-40.48
-40.26
-38.34
-34.82
-30.21
-25.27
-20.69
-16.79
-13.58
-10.84
-8.47
-6.63
-5.77
-6.40
-8.81
-12.90
-18.16
-23.84
-29.17
-33.54
-36.59
-38.22
-38.57
-38.06
-37.29
-36.97
-37.61
-39.21
-41.18
-42.44
-41.91
-38.96
-33.89
-27.83
-22.46
-19.29
-19.16
-21.94
-26.66
-32.10
-37.24
-41.69
-45.70
-49.90
-55.01
-61.59
-70.02
-80.30
-91.68
-102.29
-109.10
-108.61
-98.27
-77.79
-49.70
-18.60
10.50
34.05
50.90
61.94
68.80
72.59
73.22
69.87
62.00
50.42
37.65
27.34
22.92
26.14
36.25
50.11
63.53
72.98
76.99
76.45
73.76
71.32
70.21
69.77
68.28
64.15
56.86
47.25
36.94
27.53
20.02
14.64
11.23
9.54
9.61
11.59
15.49
20.90
26.88
32.23
35.95
37.59
37.34
35.84
33.78
31.58
29.21
26.42
22.95
18.85
14.57
10.83
8.36
7.70
9.00
12.05
16.28
20.83
24.65
26.68
26.12
22.74
17.11
10.56
4.75
1.10
0.26
1.85
4.74
7.49
8.94
8.58
6.57
3.54
0.15
-3.12
-6.16
-9.14
-12.34
-15.97
-20.02
-24.23
-28.12
-31.06
-32.45
-31.88
-29.31
-25.14
-20.21
-15.54
-12.10
-10.45
-10.57
-11.64
-12.29
-10.89
-5.99
3.09
15.98
31.03
45.72
56.97
61.80
57.89
44.08
20.88
-9.41
-42.93
-75.15
-102.15
-121.80
-134.32
-141.93
-147.60
-153.61
-160.64
-167.71
-172.97
-174.79
-172.48
-166.38
-157.44
-146.84
-135.73
-125.48
-117.67
-113.79
-114.51
-118.88
-124.27
-127.21
-125.06
-117.28
-105.94
-94.79
-87.37
-85.59
-89.17
-96.35
-105.41
-115.57
-127.01
-140.09
-154.17
-167.12
-175.64
-176.21
-166.17
-144.63
-112.72
-73.50
-31.21
10.00
47.39
80.62
111.63
143.45
178.39
216.66
256.16
293.71
326.85
355.10
379.91
403.34
426.18
446.61
460.23
461.34
444.71
407.22
348.81
272.85
186.01
97.42
17.07
-46.47
-88.41
-109.31
-114.61
-112.29
-109.45
-109.13
-109.17
-103.69
-86.55
-55.05
-11.81
36.07
80.27
114.83
138.03
151.86
159.37
162.08
158.73
146.34
122.43
87.02
43.19
-4.08
-49.81
-90.75
-125.98
-156.37
-183.30
-207.59
-229.00
-246.49
-259.10
-267.05
-272.10
-276.89
-283.28
-290.37
-293.43
-284.60
-255.17
-198.72
-113.89
-5.62
115.42
235.15
339.53
418.04
466.12
485.66
483.23
466.85
442.82
413.99
380.26
340.71
295.94
249.03
204.39
165.67
133.63
105.67
77.02
42.79
-0.33
-53.42
-115.21
-182.27
-248.85
-307.64
-351.42
-375.89
-382.31
-378.36
-376.17
-387.44
-418.22
-465.63
-518.64
-562.47
-584.57
-579.06
-547.72
-497.59
-437.09
-372.93
-308.88
-246.58
-186.79
-129.97
-76.23
-24.77
25.68
75.54
123.36
165.59
198.19
218.69
227.65
228.54
226.84
228.53
238.97
261.66
297.07
341.43
386.51
421.06
434.38
420.45
380.31
321.71
255.50
191.03
132.99
80.96
31.06
-21.84
-81.87
-150.78
-226.72
-304.07
-374.20
-427.65
-457.27
-460.96
-442.20
-408.36
-367.62
-325.88
-285.53
-246.08
-205.69
-162.39
-114.37
-60.11
1.13
67.71
134.55
193.15
233.90
249.47
237.23
200.37
146.25
83.84
21.48
-34.08
-77.41
-104.02
-110.82
-97.13
-65.43
-21.07
29.21
79.21
124.62
163.15
194.35
218.08
234.30
243.08
244.84
241.04
233.69
224.95
216.33
208.65
201.90
195.62
189.78
185.17
182.66
182.67
184.41
186.06
186.51
184.93
180.99
174.47
165.21
153.49
140.74
129.57
122.70
122.41
127.74
134.66
137.94
133.80
122.20
106.56
92.08
76.02
56.32
31.49
2.20
-28.09
-54.78
-74.58
-86.54
-92.14
-94.20
-94.36
-93.83
-92.77
-90.70
-87.16
-82.24
-76.56
-71.28
-67.90
-66.78
-68.08
-71.34
-75.66
-79.59
-83.34
-87.46
-92.71
-99.88
-108.95
-119.77
-131.61
-143.54
-154.88
-165.52
-175.67
-185.43
-194.89
-204.01
-213.35
-223.54
-235.18
-248.39
-262.47
-275.26
-283.20
-283.07
-269.57
-241.30
-200.03
-150.06
-97.06
-46.68
-2.77
33.78
63.80
88.99
111.41
133.35
156.92
183.65
213.79
246.16
278.18
304.39
316.85
309.47
280.93
236.07
184.22
135.09
87.26
39.30
-11.06
-67.20
-127.98
-188.34
-241.48
-280.64
-306.13
-320.28
-324.35
-317.44
-300.64
-272.32
-232.31
-182.13
-125.16
-66.41
-10.41
40.06
85.03
121.19
148.23
165.88
173.78
171.43
158.37
135.31
92.18
48.73
5.06
-36.26
-73.48
-105.69
-132.91
-155.90
-175.29
-191.27
-201.98
-209.77
-214.56
-216.49
-215.82
-212.93
-208.29
-202.04
-194.01
-182.41
-168.79
-152.97
-135.05
-115.40
-94.59
-73.32
-52.17
-31.62
-11.05
8.16
25.87
41.88
55.98
67.97
77.76
85.54
91.79
97.77
103.89
111.08
119.95
130.74
143.27
157.08
171.65
186.47
201.48
216.49
231.92
248.43
266.61
286.49
307.12
326.40
341.56
349.96
349.98
341.56
326.09
305.74
282.73
258.73
234.78
211.57
189.85
170.47
154.32
141.89
132.94
126.40
120.43
112.92
102.11
87.31
69.41
51.11
36.34
29.00
31.32
42.37
57.61
70.01
72.33
59.04
27.92
-20.02
-81.18
-149.83
-218.44
-278.17
-320.38
-338.91
-332.21
-303.70
-259.89
-207.28
-149.92
-89.74
-28.76
28.45
74.21
99.76
98.70
69.64
16.78
-51.53
-125.19
-194.20
-249.86
-285.73
-298.23
-287.37
-256.70
-212.36
-161.04
-108.46
-58.29
-12.16
29.97
69.92
110.81
156.24
207.89
263.15
314.26
349.71
357.81
330.53
266.64
172.30
59.53
-56.97
-163.31
-249.30
-310.01
-345.83
-361.12
-362.09
-354.63
-342.88
-329.05
-314.12
-298.88
-284.32
-271.00
-258.10
-243.10
-222.70
-194.38
-158.02
-116.25
-73.15
-32.46
4.38
38.55
72.78
109.67
150.51
195.14
242.51
290.79
336.85
375.76
401.30
408.10
394.58
364.77
327.43
292.69
267.60
253.60
247.07
242.34
235.41
225.74
215.35
206.16
197.57
185.87
165.88
133.96
90.51
40.82
-6.09
-40.52
-55.24
-48.02
-22.01
15.79
57.25
95.73
127.79
153.21
173.70
191.05
205.45
214.58
213.89
198.45
165.77
118.34
64.47
16.64
-12.74
-16.27
5.03
41.60
78.96
103.05
105.02
83.20
41.89
-11.62
-70.14
-128.08
-181.23
-225.80
-258.01
-274.73
-274.80
-259.82
-234.00
-203.13
-173.06
-148.63
-133.22
-128.69
-135.21
-150.95
-172.04
-193.03
-208.20
-213.08
-205.93
-188.13
-163.39
-136.08
-109.45
-84.60
-60.72
-36.28
-10.45
16.02
40.98
62.23
78.96
92.41
105.32
120.34
138.47
158.31
176.67
190.11
196.54
196.01
190.21
181.39
171.05
159.28
144.93
126.48
103.12
75.43
45.41
15.60
-11.93
-36.41
-58.41
-79.14
-99.48
-119.29
-137.19
-151.15
-159.25
-160.38
-154.30
-141.43
-122.24
-96.90
-65.33
-27.61
15.39
61.59
107.62
149.39
182.92
205.22
214.81
211.88
198.03
175.98
149.21
121.43
95.93
74.75
58.03
43.92
29.29
10.98
-12.80
-41.77
-73.68
-105.34
-133.84
-157.36
-175.23
-187.40
-193.83
-194.18
-187.97
-175.12
-156.45
-133.87
-110.13
-88.15
-70.27
-57.50
-49.12
-42.73
-35.10
-23.41
-6.32
15.42
39.45
62.95
83.66
100.31
112.11
117.79
115.35
102.74
79.48
48.02
13.79
-16.33
-36.52
-44.18
-40.68
-30.27
-18.05
-7.83
-1.15
2.64
5.41
9.22
15.64
25.53
38.99
55.08
71.77
86.11
94.97
96.32
90.59
81.06
73.03
71.69
79.65
95.66
115.06
131.97
142.05
144.16
140.20
133.27
125.58
117.28
106.90
92.89
75.07
55.09
35.65
19.25
7.11
-0.93
-5.75
-8.17
-8.51
-6.68
-2.77
2.51
7.66
10.39
7.99
-2.26
-22.22
-51.89
-88.46
-126.31
-158.30
-178.26
-183.55
-176.54
-164.06
-154.86
-156.61
-173.61
-206.06
-250.56
-301.26
-350.90
-391.90
-417.68
-424.25
-411.28
-382.20
-342.52
-297.38
-249.44
-198.55
-143.37
-83.84
-22.73
34.77
83.34
120.03
145.48
162.91
175.76
185.50
190.88
189.18
178.35
158.92
134.19
108.76
86.31
68.06
52.64
37.59
21.20
3.72
-12.69
-25.10
-31.35
-30.98
-25.25
-16.33
-6.32
3.37
12.13
19.84
26.54
32.28
37.19
41.51
45.55
49.40
52.72
54.75
54.63
51.96
47.22
41.81
37.64
36.38
38.77
44.31
51.37
57.87
62.01
62.94
61.01
57.59
54.49
53.32
54.88
58.74
63.15
65.23
61.42
48.09
22.47
-16.28
-66.26
-122.61
-178.43
-226.54
-261.59
-281.56
-287.89
-284.12
-273.83
-259.00
-239.55
-214.38
-183.12
-147.44
-111.03
-78.35
-52.77
-35.11
-23.48
-14.30
-3.92
9.82
26.90
45.45
62.69
76.15
84.45
87.64
87.01
84.57
82.53
82.77
86.42
93.68
103.80
115.21
125.82
133.48
136.36
133.33
124.19
109.71
91.65
72.48
55.12
42.31
36.05
36.96
44.03
54.89
66.51
76.15
82.02
83.48
80.86
74.98
66.84
57.50
48.03
39.28
31.38
23.22
12.41
-3.85
-27.11
-56.36
-87.61
-115.07
-133.13
-138.47
-130.93
-113.08
-88.85
-62.02
-35.65
-12.18
6.18
17.35
19.93
13.91
1.12
-15.24
-31.53
-44.76
-53.20
-56.43
-54.98
-49.85
-42.23
-33.27
-24.04
-15.58
-8.73
-4.13
-2.07
-2.41
-4.48
-6.97
-8.10
-6.11
0.10
10.42
23.45
36.85
48.29
56.26
60.54
62.05
62.28
62.50
63.27
64.23
64.40
62.66
58.25
51.13
41.83
31.23
19.98
8.22
-4.30
-17.72
-31.46
-43.91
-52.82
-56.19
-53.43
-46.06
-37.47
-31.87
-32.56
-40.74
-55.13
-72.59
-89.52
-103.25
-112.77
-118.66
-122.38
-125.11
-126.97
-127.18
-124.55
-118.04
-107.01
-91.50
-72.40
-51.62
-32.07
-16.96
-8.77
-8.12
-13.25
-20.62
-26.12
-26.68
-21.14
-10.19
4.42
20.92
38.06
55.08
71.28
85.61
96.99
104.56
108.08
107.89
104.79
99.84
93.80
87.07
79.73
71.69
62.94
53.56
44.08
35.48
29.06
26.27
28.12
34.74
45.02
56.61
66.63
72.50
72.95
68.38
60.58
52.00
44.81
40.36
38.73
39.24
40.79
42.42
43.74
44.72
45.48
45.89
45.39
43.43
39.57
34.14
28.03
22.34
17.93
14.89
12.70
10.48
7.61
4.01
0.21
-3.02
-5.04
-5.75
-5.53
-5.12
-5.21
-6.24
-8.23
-10.84
-13.53
-15.50
-16.34
-15.84
-14.29
-12.38
-10.84
-10.29
-10.89
-12.51
-14.87
-17.67
-20.82
-24.21
-27.64
-30.72
-32.89
-33.67
-32.87
-30.67
-27.61
-24.34
-21.43
-19.11
-17.33
-15.67
-13.74
-11.25
-7.97
-4.16
-0.09
3.95
7.74
11.50
15.35
19.43
23.62
27.49
30.41
31.82
31.50
29.56
26.44
22.69
18.77
15.07
11.99
10.05
9.91
12.01
16.26
21.79
26.95
29.97
29.55
25.45
18.50
10.39
2.82
-3.09
-6.79
-8.77
-9.75
-10.50
-11.57
-12.97
-14.50
-15.83
-16.76
-17.36
-17.94
-18.89
-20.37
-22.29
-24.28
-25.87
-26.80
-27.13
-27.15
-27.25
-27.66
-28.33
-28.88
-29.00
-28.50
-27.51
-26.38
-25.48
-25.14
-25.33
-25.96
-26.87
-27.77
-28.41
-28.38
-27.26
-24.79
-20.95
-16.22
-11.31
-6.92
-3.50
-1.06
0.62
1.76
2.34
2.15
0.99
-1.03
-3.37
-5.37
-6.48
-6.60
-6.08
-5.22
-4.35
-3.48
-2.60
-1.93
-1.91
-3.16
-5.97
-10.27
-15.51
-20.81
-25.40
-28.61
-30.12
-29.90
-28.12
-25.27
-21.93
-18.76
-16.38
-15.26
-15.89
-18.91
-25.14
-35.16
-48.98
-65.62
-83.07
-99.01
-111.38
-118.95
-121.65
-119.78
-113.99
-104.78
-93.03
-80.56
-70.06
-64.46
-65.12
-70.82
-77.52
-79.75
-73.07
-55.89
-29.89
1.25
34.03
66.57
98.68
130.52
161.05
187.53
206.24
214.35
210.92
197.58
177.57
154.25
130.27
106.67
83.50
60.37
37.23
15.18
-3.83
-17.23
-22.89
-20.45
-11.72
-0.52
8.90
13.54
12.77
8.38
3.24
-0.13
-0.57
1.73
6.18
12.52
21.29
33.13
47.90
64.07
78.84
89.39
93.58
91.16
83.43
72.57
61.06
50.64
42.35
36.19
31.47
27.40
23.21
18.69
14.14
10.09
7.15
5.67
5.79
7.40
10.32
14.07
18.03
21.76
24.72
26.77
27.99
28.70
29.78
31.89
35.64
41.01
47.10
52.71
56.81
59.67
63.16
70.14
83.12
102.15
124.18
143.37
153.17
148.97
129.40
96.52
54.43
7.61
-39.89
-84.60
-123.26
-152.97
-171.26
-177.27
-172.15
-158.53
-140.33
-120.98
-102.91
-87.53
-75.05
-65.57
-59.02
-55.22
-53.93
-54.63
-56.73
-59.61
-62.72
-65.65
-67.99
-69.60
-70.49
-70.90
-71.14
-71.29
-71.18
-70.37
-68.51
-65.69
-62.50
-59.92
-58.73
-59.45
-61.96
-65.81
-70.47
-75.04
-78.90
-81.28
-81.68
-79.96
-76.10
-70.28
-62.58
-53.05
-41.89
-29.50
-16.42
-2.97
10.97
25.95
42.59
61.14
81.12
101.36
120.27
136.34
148.26
155.33
157.16
153.94
146.55
136.42
125.35
114.89
106.33
100.22
96.36
94.00
91.44
86.64
77.64
63.41
44.58
23.25
2.27
-15.85
-30.05
-40.69
-48.79
-55.19
-59.83
-62.06
-61.31
-57.77
-52.48
-46.92
-42.30
-39.04
-36.90
-35.17
-33.24
-30.88
-28.13
-25.15
-22.12
-19.12
-16.30
-13.81
-11.76
-10.17
-9.04
-8.38
-8.33
-9.25
-11.54
-15.51
-21.07
-27.46
-33.49
-37.87
-39.73
-39.08
-36.78
-34.17
-32.59
-32.72
-34.43
-36.87
-38.94
-39.62
-38.38
-35.31
-30.75
-25.39
-19.84
-14.62
-10.18
-6.68
-4.43
-3.45
-3.52
-4.21
-4.87
-5.05
-4.60
-3.96
-3.80
-4.75
-6.93
-9.76
-12.14
-12.94
-11.45
-7.67
-2.31
3.58
8.90
12.96
15.48
16.63
16.73
16.14
15.19
14.02
12.95
12.18
11.85
11.88
11.85
11.39
10.09
7.98
5.38
2.85
1.00
0.20
0.45
1.34
2.11
1.98
0.44
-2.38
-5.68
-8.21
-8.76
-6.71
-2.31
3.25
8.41
11.74
12.42
10.59
6.90
2.31
-2.49
-7.28
-12.14
-17.12
-21.94
-25.87
-28.07
-27.98
-25.84
-22.57
-19.52
-17.79
-17.83
-19.42
-21.96
-25.01
-28.59
-32.93
-38.12
-43.62
-48.17
-50.18
-48.38
-42.38
-32.80
-21.38
-10.10
-0.66
6.01
10.02
12.15
13.45
14.66
15.95
16.95
17.19
16.44
14.91
13.11
11.38
9.64
7.49
4.62
1.42
-0.80
-0.15
5.06
15.53
30.57
48.55
67.59
86.39
104.40
121.61
137.76
151.93
162.57
167.70
165.72
155.76
138.02
113.78
85.18
54.94
25.97
0.75
-19.29
-34.09
-44.89
-53.70
-62.42
-72.23
-83.35
-95.22
-107.09
-118.53
-129.71
-141.23
-153.57
-166.46
-178.41
-186.77
-188.61
-181.99
-167.01
-146.02
-122.74
-100.68
-81.77
-66.01
-52.03
-38.32
-24.03
-9.16
6.02
21.58
38.08
55.90
74.44
91.52
103.82
108.09
102.69
88.36
68.08
45.82
25.02
7.43
-7.06
-19.71
-31.79
-43.66
-54.67
-63.69
-69.95
-73.58
-75.42
-76.52
-77.50
-78.34
-78.51
-77.51
-75.30
-72.46
-70.03
-69.14
-70.57
-74.45
-80.25
-87.02
-93.79
-99.88
-105.02
-109.24
-112.61
-115.01
-116.17
-115.78
-113.96
-111.44
-109.37
-108.92
-110.68
-114.47
-119.47
-124.49
-128.06
-128.12
-121.92
-106.37
-79.21
-40.37
7.16
57.86
105.41
144.94
174.40
194.60
207.85
216.28
220.89
221.67
218.51
212.01
203.66
195.19
187.90
182.22
177.88
174.43
171.68
169.76
168.87
168.90
169.23
168.88
166.82
162.40
155.54
146.70
136.69
126.46
116.84
108.42
101.46
95.94
91.63
88.21
85.45
83.23
81.45
79.86
78.00
75.17
70.68
64.11
55.53
45.49
34.83
24.49
14.99
6.33
-2.16
-11.51
-22.65
-35.94
-50.86
-66.15
-80.22
-91.72
-99.95
-104.95
-107.15
-107.03
-104.95
-101.14
-96.00
-90.20
-84.67
-80.30
-77.61
-76.51
-76.49
-76.83
-76.97
-76.67
-75.94
-74.87
-73.29
-70.79
-66.75
-60.69
-52.53
-42.71
-32.16
-21.99
-13.18
-6.25
-1.18
2.61
5.94
9.72
14.55
20.60
27.55
34.71
41.19
46.24
49.30
50.17
48.98
46.13
42.23
37.97
33.87
30.23
27.06
24.16
21.21
17.99
14.26
9.66
3.74
-4.02
-13.99
-26.04
-39.30
-52.19
-62.70
-68.90
-69.42
-63.86
-52.85
-38.06
-21.86
-6.95
4.15
9.66
8.87
2.25
-8.64
-21.61
-34.34
-44.86
-51.82
-54.62
-53.29
-48.33
-40.67
-31.40
-21.52
-11.52
-1.24
9.99
22.84
37.55
53.55
69.52
83.77
94.75
101.43
103.45
101.11
95.28
87.28
78.69
71.04
65.43
62.23
60.97
60.67
60.37
59.58
58.45
57.64
58.00
60.13
64.15
69.57
75.55
81.11
85.34
87.65
87.82
86.05
82.89
79.06
75.20
71.66
68.39
65.00
61.05
56.31
50.89
45.17
39.58
34.29
29.18
23.89
18.06
11.55
4.50
-2.84
-10.31
-17.92
-25.79
-34.00
-42.41
-50.63
-58.11
-64.37
-69.15
-72.56
-74.98
-76.97
-79.14
-82.00
-85.88
-90.81
-96.44
-102.03
-106.62
-109.25
-109.32
-106.76
-102.07
-96.11
-89.78
-83.75
-78.28
-73.29
-68.49
-63.60
-58.48
-53.14
-47.65
-42.08
-36.43
-30.66
-24.76
-18.84
-13.19
-8.23
-4.36
-1.82
-0.60
-0.44
-0.89
-1.53
-2.10
-2.55
-3.03
-3.79
-5.07
-6.94
-9.31
-11.87
-14.18
-15.84
-16.58
-16.36
-15.39
-14.01
-12.58
-11.30
-10.20
-9.17
-8.11
-7.06
-6.28
-6.09
-6.77
-8.31
-10.41
-12.55
-14.25
-15.31
-15.77
-15.81
-15.49
-14.66
-12.98
-10.13
-6.14
-1.52
2.88
6.18
7.86
7.87
6.57
4.52
2.27
0.42
-0.26
1.11
5.22
12.13
20.96
30.10
37.80
42.96
45.62
46.93
48.36
50.80
54.02
56.72
57.21
54.35
48.11
39.70
31.15
24.65
21.95
23.88
30.23
39.80
50.69
60.74
68.06
71.61
71.46
68.76
65.24
62.48
61.21
61.11
61.06
59.85
56.89
52.69
48.76
47.01
48.92
54.75
63.26
71.99
77.89
78.12
70.51
54.15
29.90
0.95
-27.29
-48.37
-57.12
-52.18
-37.38
-20.89
-12.07
-17.63
-38.89
-71.64
-108.56
-142.62
-169.69
-188.99
-201.72
-209.12
-211.32
-207.52
-197.12
-180.75
-160.50
-139.27
-119.44
-101.96
-86.03
-69.74
-51.22
-29.84
-6.74
15.48
33.76
45.91
51.48
51.86
49.61
47.43
47.11
49.02
52.27
55.29
56.69
55.86
53.13
49.45
45.83
42.85
40.52
38.35
35.76
32.28
27.75
22.19
15.71
8.46
0.64
-7.36
-15.02
-21.77
-27.18
-31.15
-33.88
-35.77
-37.20
-38.30
-38.95
-38.87
-37.84
-35.86
-33.11
-29.80
-25.89
-21.04
-14.68
-6.32
4.15
16.26
29.02
41.17
51.47
58.93
62.93
63.34
60.51
55.25
48.59
41.50
34.48
27.41
19.71
10.74
0.35
-10.85
-21.53
-30.06
-35.07
-35.89
-32.80
-26.78
-19.27
-11.73
-5.37
-0.95
1.21
1.22
-0.53
-3.47
-7.05
-10.81
-14.56
-18.32
-22.31
-26.83
-32.15
-38.19
-44.24
-48.90
-50.27
-46.70
-37.45
-23.26
-6.21
10.99
25.97
37.47
45.47
50.72
54.08
56.03
56.59
55.71
53.69
51.35
49.78
49.77
51.42
53.90
55.77
55.63
52.78
47.79
42.27
38.33
37.62
40.63
46.50
53.50
59.92
64.78
68.16
70.90
74.15
78.71
84.75
91.67
98.04
101.60
99.46
88.71
67.39
35.91
-2.31
-41.21
-73.81
-94.58
-101.40
-96.02
-82.85
-66.94
-51.96
-39.56
-29.70
-21.91
-16.30
-13.63
-14.65
-19.19
-25.69
-31.51
-34.05
-32.12
-26.59
-20.06
-15.36
-13.94
-15.04
-16.02
-13.91
-7.16
3.53
15.60
26.01
32.71
35.34
34.80
32.21
28.25
22.93
16.24
8.55
0.68
-6.51
-12.70
-18.09
-22.98
-27.37
-30.96
-33.49
-35.47
-38.35
-44.05
-53.78
-67.07
-81.45
-93.20
-98.74
-95.95
-84.83
-67.32
-46.36
-25.02
-5.72
9.97
21.41
28.65
32.06
32.06
28.90
22.71
13.76
2.69
-9.58
-22.33
-35.39
-49.03
-63.18
-76.57
-86.30
-88.74
-81.22
-63.71
-39.35
-13.42
8.87
24.39
33.02
36.99
39.11
41.20
43.26
43.82
40.98
33.44
21.04
4.69
-14.00
-33.27
-51.39
-66.72
-77.50
-81.98
-78.68
-67.07
-48.06
-24.12
1.36
25.12
45.16
61.23
74.55
87.00
100.04
113.93
127.46
138.25
143.47
140.91
129.87
111.60
88.92
65.28
43.50
25.02
9.87
-2.69
-13.30
-22.12
-28.91
-33.55
-36.40
-38.32
-40.11
-42.10
-43.93
-44.99
-44.90
-43.92
-42.87
-42.75
-44.20
-47.08
-50.52
-53.17
-53.75
-51.50
-46.43
-39.27
-31.21
-23.44
-16.83
-11.81
-8.39
-6.41
-5.68
-6.24
-8.34
-12.43
-18.93
-27.97
-39.05
-50.85
-61.40
-68.50
-70.38
-66.24
-56.53
-42.63
-26.40
-9.59
6.46
20.80
32.75
41.73
47.35
49.61
48.96
46.33
42.76
39.12
35.84
32.94
30.20
27.30
23.96
19.88
14.70
8.13
0.13
-8.90
-18.13
-26.59
-33.54
-38.84
-42.92
-46.54
-50.38
-54.63
-58.99
-62.75
-65.26
-66.14
-65.33
-63.03
-59.52
-55.10
-50.04
-44.57
-38.87
-33.11
-27.41
-21.98
-17.19
-13.52
-11.52
-11.51
-13.40
-16.65
-20.28
-23.23
-24.56
-23.73
-20.72
-16.07
-10.66
-5.48
-1.23
2.01
4.80
8.20
13.14
19.94
28.02
36.06
42.51
46.35
47.51
46.85
45.72
45.24
45.86
47.18
48.19
47.76
45.06
39.84
32.41
23.60
14.55
6.62
1.05
-1.29
-0.35
2.96
6.97
9.96
10.85
9.78
8.07
7.50
9.43
14.14
20.78
27.86
33.99
38.50
41.52
43.59
45.28
46.85
48.28
49.46
50.37
51.08
51.66
51.96
51.65
50.24
47.27
42.40
35.41
26.13
14.27
-0.45
-18.16
-38.36
-59.70
-80.04
-96.90
-108.26
-113.22
-112.35
-107.41
-100.64
-93.96
-88.40
-84.02
-80.32
-76.71
-72.80
-68.42
-63.36
-57.35
-50.14
-41.78
-32.77
-23.95
-16.00
-9.08
-2.60
4.62
13.76
25.48
39.53
54.81
69.71
82.57
92.11
97.68
99.31
97.66
93.71
88.56
83.10
77.82
72.79
67.80
62.63
57.16
51.44
45.66
40.05
34.79
30.10
26.18
23.29
21.64
21.35
22.39
24.49
27.13
29.57
30.92
30.30
27.14
21.44
13.87
5.66
-1.81
-7.47
-10.92
-12.55
-13.22
-13.94
-15.43
-17.94
-21.28
-25.02
-28.57
-31.33
-32.64
-31.86
-28.50
-22.34
-13.59
-2.98
8.35
19.00
27.73
33.68
36.63
37.07
35.94
34.28
32.75
31.37
29.55
26.35
21.05
13.53
4.44
-5.13
-14.09
-21.78
-28.15
-33.56
-38.47
-43.04
-47.14
-50.45
-52.68
-53.73
-53.58
-52.10
-48.89
-43.44
-35.40
-25.03
-13.36
-1.93
7.73
14.72
19.02
21.38
22.83
24.13
25.49
26.64
27.18
26.88
25.84
24.38
22.72
20.77
18.11
14.22
8.81
2.13
-5.06
-11.78
-17.12
-20.64
-22.28
-22.15
-20.20
-16.11
-9.48
-0.27
10.78
22.19
32.09
39.02
42.35
42.54
40.66
37.82
34.64
31.14
27.03
22.15
16.82
11.66
7.33
4.11
1.75
-0.40
-3.00
-6.38
-10.46
-14.76
-18.57
-21.25
-22.32
-21.54
-18.98
-14.96
-10.00
-4.71
0.42
5.02
8.93
12.04
14.22
15.28
14.99
13.28
10.29
6.48
2.52
-0.89
-3.28
-4.48
-4.81
-4.88
-5.38
-6.83
-9.37
-12.71
-16.28
-19.48
-21.89
-23.46
-24.50
-25.50
-26.87
-28.71
-30.71
-32.28
-32.78
-31.76
-29.14
-25.20
-20.48
-15.67
-11.45
-8.41
-6.96
-7.27
-9.27
-12.53
-16.35
-19.87
-22.16
-22.40
-19.86
-14.00
-4.60
8.08
23.15
39.12
54.11
66.30
74.37
77.90
77.44
74.26
69.93
65.83
62.79
60.98
59.99
59.10
57.56
54.76
50.28
43.82
35.14
24.11
10.95
-3.62
-18.25
-31.28
-41.14
-46.87
-48.41
-46.48
-42.27
-36.89
-31.10
-25.25
-19.54
-14.22
-9.71
-6.45
-4.63
-3.97
-3.77
-3.19
-1.61
1.01
4.22
7.25
9.49
10.73
11.25
11.60
12.27
13.44
14.92
16.25
16.89
16.44
14.75
11.93
8.40
4.74
1.66
-0.28
-0.74
0.20
2.07
4.14
5.66
6.11
5.47
4.21
3.11
2.96
4.25
7.02
10.86
15.14
19.22
22.66
25.25
26.86
27.43
26.84
25.00
21.91
17.72
12.77
7.46
2.26
-2.48
-6.56
-9.99
-12.90
-15.53
-18.11
-20.78
-23.55
-26.31
-28.86
-30.98
-32.52
-33.42
-33.77
-33.86
-34.13
-35.14
-37.27
-40.57
-44.52
-48.15
-50.32
-50.16
-47.39
-42.45
-36.29
-29.93
-24.04
-18.77
-13.85
-8.92
-3.83
1.17
5.59
8.93
10.96
11.85
12.04
12.01
12.01
11.95
11.57
10.58
8.96
6.95
4.86
2.89
0.96
-1.21
-3.95
-7.35
-11.16
-14.92
-18.08
-20.20
-21.06
-20.53
-18.56
-15.07
-9.99
-3.41
4.36
12.70
20.83
27.96
33.50
37.19
39.13
39.62
39.06
37.85
36.29
34.65
33.14
31.89
30.93
30.15
29.32
28.20
26.62
24.53
22.02
19.26
16.50
13.93
11.71
9.96
8.68
7.82
7.29
7.03
7.00
7.22
7.59
7.90
7.77
6.86
5.01
2.48
-0.12
-2.00
-2.48
-1.29
1.32
4.66
7.86
10.13
10.97
10.25
8.15
5.12
1.74
-1.38
-3.72
-4.97
-5.10
-4.39
-3.32
-2.52
-2.58
-3.94
-6.72
-10.76
-15.58
-20.55
-25.10
-28.86
-31.74
-33.86
-35.48
-36.78
-37.91
-39.01
-40.23
-41.71
-43.44
-45.17
-46.34
-46.35
-44.81
-41.73
-37.49
-32.68
-27.78
-23.03
-18.41
-13.80
-9.03
-4.01
1.41
7.37
14.01
21.28
28.86
36.09
42.12
46.07
47.26
45.32
40.30
32.66
23.24
13.10
3.25
-5.49
-12.66
-18.03
-21.47
-22.83
-21.98
-18.88
-13.81
-7.46
-0.75
5.37
10.16
13.32
14.88
15.17
14.55
13.30
11.48
9.06
5.93
2.07
-2.35
-7.03
-11.63
-16.00
-20.25
-24.77
-30.00
-36.11
-42.88
-49.66
-55.59
-60.00
-62.50
-63.11
-62.07
-59.61
-55.82
-50.57
-43.66
-34.98
-24.67
-13.23
-1.45
9.66
19.13
26.22
30.61
32.53
32.66
31.95
31.36
31.55
32.78
34.97
37.79
40.93
44.09
47.06
49.60
51.48
52.50
52.59
51.86
50.52
48.79
46.81
44.67
42.47
40.41
38.77
37.76
37.33
37.10
36.42
34.65
31.42
26.77
21.13
15.12
9.38
4.41
0.54
-2.06
-3.39
-3.65
-3.20
-2.55
-2.18
-2.47
-3.59
-5.50
-8.05
-11.10
-14.56
-18.34
-22.31
-26.26
-29.87
-32.90
-35.22
-36.94
-38.25
-39.33
-40.20
-40.70
-40.60
-39.78
-38.33
-36.57
-34.85
-33.42
-32.29
-31.31
-30.38
-29.56
-29.07
-29.20
-30.03
-31.37
-32.75
-33.66
-33.72
-32.89
-31.48
-30.05
-29.25
-29.55
-31.04
-33.34
-35.73
-37.38
-37.64
-36.35
-33.78
-30.52
-27.11
-23.80
-20.44
-16.58
-11.57
-4.80
4.20
15.62
29.17
43.99
58.71
71.68
81.46
87.26
89.13
87.84
84.52
80.19
75.45
70.47
65.18
59.45
53.19
46.33
38.75
30.37
21.22
11.61
2.13
-6.46
-13.46
-18.55
-21.88
-24.02
-25.73
-27.64
-29.97
-32.46
-34.42
-35.01
-33.51
-29.57
-23.39
-15.59
-7.12
1.06
8.16
13.67
17.39
19.39
19.97
19.50
18.40
16.99
15.47
13.91
12.33
10.72
9.12
7.62
6.29
5.17
4.16
3.08
1.67
-0.33
-3.03
-6.38
-10.19
-14.10
-17.73
-20.67
-22.57
-23.12
-22.15
-19.76
-16.31
-12.42
-8.82
-6.07
-4.41
-3.72
-3.69
-4.02
-4.64
-5.66
-7.19
-9.14
-11.03
-12.11
-11.61
-9.05
-4.51
1.37
7.65
13.37
17.87
20.87
22.52
23.15
23.09
22.60
21.73
20.44
18.64
16.36
13.76
11.17
9.03
7.68
7.28
7.74
8.73
9.81
10.61
10.90
10.57
9.56
7.85
5.44
2.49
-0.75
-3.95
-6.82
-9.21
-11.17
-12.83
-14.31
-15.70
-17.05
-18.39
-19.82
-21.42
-23.27
-25.32
-27.38
-29.14
-30.17
-30.03
-28.37
-25.00
-19.98
-13.60
-6.36
1.20
8.54
15.18
20.75
24.91
27.46
28.31
27.62
25.70
22.98
19.89
16.80
14.01
11.78
10.36
9.92
10.49
11.93
13.90
15.98
17.78
18.91
19.10
18.12
15.84
12.38
8.08
3.58
-0.37
-3.08
-4.19
-3.78
-2.31
-0.44
1.26
2.43
2.98
3.03
2.70
2.01
0.82
-1.08
-3.84
-7.36
-11.24
-14.81
-17.23
-17.79
-16.10
-12.29
-6.97
-1.09
4.36
8.66
11.47
12.91
13.39
13.42
13.44
13.74
14.39
15.32
16.28
16.98
17.11
16.41
14.82
12.45
9.60
6.64
3.92
1.67
-0.10
-1.56
-3.00
-4.70
-6.85
-9.43
-12.16
-14.53
-15.90
-15.73
-13.79
-10.36
-6.17
-2.25
0.46
1.36
0.41
-1.98
-5.16
-8.46
-11.31
-13.31
-14.18
-13.73
-11.99
-9.20
-5.82
-2.43
0.47
2.58
3.83
4.34
4.30
3.89
3.24
2.46
1.68
1.04
0.68
0.69
1.14
1.98
3.04
4.13
4.99
5.39
5.18
4.27
2.74
0.75
-1.40
-3.38
-4.84
-5.53
-5.40
-4.56
-3.32
-1.99
-0.84
0.04
0.68
1.21
1.83
2.78
4.29
6.60
9.79
13.72
18.01
22.12
25.53
27.90
29.16
29.44
28.94
27.81
26.01
23.46
19.99
15.50
10.03
3.77
-2.86
-9.35
-15.14
-19.81
-23.17
-25.35
-26.64
-27.43
-27.98
-28.46
-28.87
-29.20
-29.40
-29.37
-28.96
-27.99
-26.27
-23.70
-20.26
-15.97
-10.87
-4.99
1.53
8.40
15.09
20.90
25.09
27.08
26.56
23.53
18.34
11.73
4.79
-1.22
-5.16
-6.34
-4.81
-1.40
2.55
5.63
6.88
6.02
3.54
0.51
-1.83
-2.41
-0.69
3.27
8.84
15.13
21.19
26.33
30.10
32.26
32.56
30.82
26.97
21.18
13.91
5.81
-2.48
-10.40
-17.54
-23.57
-28.19
-31.17
-32.41
-32.04
-30.45
-28.20
-25.89
-24.05
-22.98
-22.72
-23.03
-23.55
-23.90
-23.92
-23.77
-23.83
-24.51
-25.95
-27.91
-29.91
-31.52
-32.58
-33.30
-33.98
-34.77
-35.50
-35.78
-35.28
-33.97
-32.24
-30.67
-29.78
-29.80
-30.65
-32.00
-33.36
-34.13
-33.55
-30.81
-25.27
-16.81
-6.10
5.43
15.94
23.71
27.74
28.01
25.41
21.29
16.97
13.26
10.46
8.39
6.67
4.89
2.79
0.23
-2.73
-5.77
-8.39
-9.92
-9.76
-7.53
-3.24
2.73
9.68
16.90
23.98
31.05
38.85
48.44
60.68
75.57
92.01
107.93
121.02
129.52
132.84
131.50
126.69
119.58
110.93
101.03
90.04
78.26
66.20
54.36
43.00
32.04
21.15
10.08
-1.07
-11.71
-20.91
-27.75
-31.62
-32.52
-31.04
-28.25
-25.28
-23.05
-22.12
-22.60
-24.32
-26.95
-30.01
-32.96
-35.17
-36.00
-34.94
-31.71
-26.37
-19.28
-10.95
-1.92
7.29
16.12
23.88
29.71
32.66
31.88
26.95
17.98
5.74
-8.47
-23.13
-36.72
-48.00
-56.16
-60.82
-61.97
-59.91
-55.13
-48.29
-40.18
-31.69
-23.68
-16.83
-11.54
-7.78
-5.21
-3.31
-1.57
0.28
2.20
3.94
5.20
5.70
5.38
4.34
2.82
1.11
-0.55
-1.98
-3.11
-3.97
-4.69
-5.50
-6.63
-8.31
-10.61
-13.41
-16.33
-18.89
-20.59
-21.21
-20.82
-19.81
-18.69
-17.88
-17.56
-17.70
-18.10
-18.57
-18.98
-19.23
-19.25
-18.97
-18.32
-17.33
-16.12
-14.91
-13.91
-13.24
-12.92
-12.86
-12.93
-13.05
-13.20
-13.46
-14.02
-15.08
-16.75
-18.88
-21.01
-22.38
-22.18
-19.82
-15.19
-8.66
-0.98
7.02
14.63
21.36
26.83
30.69
32.61
32.46
30.41
27.08
23.31
19.89
17.16
14.94
12.70
9.86
6.16
1.77
-2.81
-7.04
-10.54
-13.21
-15.21
-16.77
-18.16
-19.62
-21.37
-23.57
-26.26
-29.25
-32.05
-33.99
-34.44
-33.05
-29.84
-25.23
-19.76
-13.89
-7.83
-1.63
4.73
11.14
17.26
22.60
26.69
29.20
30.19
30.07
29.56
29.41
30.12
31.78
33.94
35.88
36.88
36.51
34.75
31.88
28.23
24.00
19.24
14.00
8.50
3.12
-1.69
-5.56
-8.36
-10.12
-10.90
-10.71
-9.50
-7.20
-3.89
0.20
4.66
9.03
12.84
15.69
17.31
17.52
16.34
13.98
10.79
7.23
3.66
0.28
-2.92
-6.08
-9.33
-12.67
-15.86
-18.55
-20.38
-21.16
-21.07
-20.53
-20.11
-20.24
-21.12
-22.59
-24.37
-26.15
-27.81
-29.31
-30.55
-31.17
-30.41
-27.33
-21.16
-11.80
-0.06
12.39
23.49
31.50
35.53
35.73
33.14
29.11
24.71
20.44
16.13
11.34
5.70
-0.73
-7.51
-13.86
-19.00
-22.23
-23.07
-21.26
-16.86
-10.46
-3.18
3.42
7.92
9.62
8.86
6.82
4.89
3.92
3.83
3.87
3.26
1.80
0.09
-0.89
-0.46
1.20
3.02
3.58
1.78
-2.66
-9.00
-15.77
-21.11
-23.36
-21.36
-14.79
-4.25
8.89
22.81
35.71
46.31
54.10
59.39
63.03
65.94
68.69
71.33
73.58
74.98
75.32
74.85
74.05
73.46
73.33
73.73
74.87
77.16
81.02
86.39
92.26
96.75
97.83
94.09
85.60
73.68
60.28
47.03
34.67
23.35
12.97
3.70
-4.14
-10.34
-15.11
-18.89
-21.89
-23.81
-24.10
-22.72
-20.67
-20.13
-23.56
-32.29
-45.54
-60.55
-73.94
-83.53
-89.34
-93.13
-96.90
-101.25
-104.84
-105.10
-99.89
-88.96
-74.22
-58.74
-45.31
-35.25
-28.33
-23.43
-19.57
-16.50
-14.63
-14.55
-16.38
-19.55
-22.87
-25.11
-25.49
-24.01
-21.32
-18.21
-15.15
-12.03
-8.33
-3.65
1.98
7.93
13.22
17.02
19.04
19.53
19.10
18.31
17.46
16.43
14.93
12.73
9.83
6.52
3.23
0.28
-2.29
-4.78
-7.71
-11.51
-16.34
-21.88
-27.41
-32.12
-35.46
-37.32
-38.07
-38.15
-37.81
-36.87
-34.84
-31.27
-26.21
-20.17
-14.11
-8.92
-5.20
-3.13
-2.65
-3.69
-6.11
-9.75
-14.09
-18.29
-21.42
-22.88
-22.67
-21.53
-20.48
-20.24
-21.09
-22.50
-23.48
-22.84
-19.26
-11.72
0.32
16.26
34.15
51.08
64.15
71.78
74.43
74.03
72.97
72.53
72.42
71.50
68.71
64.19
58.88
53.71
48.79
43.38
36.69
28.78
20.99
15.10
12.51
13.37
16.50
20.38
23.65
26.07
28.42
31.72
36.42
41.97
46.90
49.67
49.42
46.55
42.29
38.20
35.34
33.23
30.74
26.33
19.28
10.29
0.97
-6.85
-12.22
-15.60
-18.50
-22.40
-27.86
-34.10
-39.22
-41.46
-40.31
-36.84
-33.41
-32.17
-34.06
-38.39
-43.29
-46.86
-48.13
-47.35
-45.55
-43.95
-43.32
-43.80
-45.16
-46.86
-48.28
-49.17
-49.23
-48.33
-46.27
-42.79
-37.78
-31.50
-24.60
-18.05
-12.93
-9.97
-9.38
-10.59
-12.32
-13.04
-11.53
-7.31
-0.92
6.39
13.26
18.74
22.59
25.12
26.84
27.95
28.42
27.95
26.41
23.99
21.04
18.02
15.16
12.35
9.26
5.75
1.98
-1.50
-3.92
-4.80
-4.28
-3.07
-2.28
-2.74
-4.48
-6.64
-7.72
-6.45
-2.41
3.68
10.23
15.58
18.50
18.53
15.91
11.18
5.04
-1.88
-8.65
-14.13
-17.22
-17.45
-15.37
-12.49
-10.42
-10.01
-10.89
-11.66
-10.87
-7.88
-3.23
1.85
6.04
8.69
9.95
10.18
9.67
8.30
5.74
1.93
-2.60
-6.85
-9.78
-10.31
-8.04
-3.11
3.78
11.13
16.99
19.02
15.11
4.08
-13.97
-37.45
-63.63
-89.31
-111.54
-128.18
-138.15
-141.45
-138.95
-132.12
-123.03
-113.60
-105.33
-98.67
-92.75
-85.95
-76.43
-63.32
-47.07
-29.40
-12.29
2.92
15.88
27.55
39.06
51.28
64.42
77.76
90.04
99.68
105.36
106.59
103.44
96.32
85.57
71.06
52.80
31.58
9.64
-9.62
-22.81
-27.98
-26.07
-20.15
-14.38
-11.77
-13.02
-16.75
-20.48
-22.44
-22.02
-19.86
-16.82
-13.35
-9.28
-3.81
3.50
12.20
20.85
27.54
30.95
31.21
29.88
29.36
31.21
35.47
40.54
44.17
45.06
43.07
39.35
35.33
32.10
30.34
30.09
31.18
32.96
34.17
33.35
28.95
20.52
9.01
-3.48
-14.64
-22.72
-27.02
-27.58
-24.55
-18.01
-8.28
3.50
15.20
24.14
28.39
27.71
23.58
18.36
14.27
12.28
11.98
12.60
13.19
13.38
13.20
12.47
10.90
8.08
4.08
-0.16
-3.27
-3.97
-2.17
0.67
2.21
0.10
-6.74
-17.71
-30.71
-43.03
-52.42
-57.66
-58.63
-55.78
-49.47
-39.91
-27.59
-13.59
0.16
11.53
18.96
22.02
21.38
18.65
15.31
12.15
9.29
6.30
2.87
-0.72
-3.97
-6.31
-7.76
-9.12
-11.43
-15.38
-20.71
-26.38
-30.74
-32.78
-32.46
-30.80
-29.53
-29.97
-32.47
-36.10
-38.90
-38.93
-35.00
-27.15
-16.60
-5.08
5.88
15.49
23.79
31.30
38.61
45.41
51.00
54.30
54.67
52.38
48.37
43.92
39.80
35.96
31.63
25.98
18.70
10.27
2.15
-4.35
-8.36
-10.04
-10.61
-11.58
-14.11
-18.47
-23.80
-28.78
-32.31
-33.96
-34.25
-33.86
-33.24
-32.06
-29.26
-23.78
-15.21
-4.44
7.02
17.76
27.10
35.28
42.68
49.13
53.78
55.58
54.09
50.06
45.09
40.84
38.27
37.15
36.42
34.91
31.95
27.69
22.99
18.69
15.20
12.30
9.12
4.88
-0.72
-7.23
-13.91
-20.15
-25.76
-30.83
-35.10
-37.77
-37.70
-34.16
-27.63
-19.74
-12.56
-7.44
-4.24
-1.73
1.66
6.61
12.62
18.57
23.13
25.63
26.03
24.60
21.64
17.30
11.50
4.21
-4.51
-14.31
-24.73
-35.36
-45.59
-55.27
-64.31
-72.43
-79.03
-83.04
-83.59
-80.79
-76.03
-71.85
-70.67
-73.26
-78.11
-81.92
-81.11
-73.80
-60.53
-43.90
-27.12
-12.46
-0.47
9.57
18.80
27.94
36.91
45.37
53.05
60.02
66.67
73.28
79.61
84.81
88.07
88.99
88.15
87.21
88.15
92.55
100.86
111.90
123.54
133.59
140.70
144.80
146.85
147.98
148.71
148.53
145.96
139.18
126.73
108.06
83.82
55.76
26.35
-1.75
-26.36
-46.27
-61.34
-72.31
-80.20
-85.66
-88.66
-88.69
-85.27
-78.49
-69.25
-58.91
-48.88
-40.13
-33.11
-27.87
-24.14
-21.28
-18.25
-13.83
-7.10
1.95
11.97
20.53
24.89
23.14
14.94
1.67
-14.15
-29.83
-43.24
-53.18
-59.24
-61.54
-60.50
-56.75
-51.17
-44.75
-38.48
-33.03
-28.61
-25.04
-21.91
-18.80
-15.51
-11.97
-8.09
-3.73
1.37
7.44
14.44
21.97
29.23
35.17
38.71
38.90
35.23
27.72
17.08
4.59
-8.17
-19.67
-28.67
-34.28
-35.92
-33.42
-27.28
-18.76
-9.73
-2.11
2.93
5.35
6.17
6.59
7.05
6.71
3.74
-3.81
-16.87
-34.96
-56.34
-78.76
-100.23
-119.35
-135.20
-146.98
-153.82
-154.83
-149.25
-136.85
-118.06
-93.86
-65.53
-34.30
-1.24
32.68
66.48
98.96
128.73
154.35
174.63
188.75
196.45
197.91
193.76
184.99
172.86
158.75
143.86
129.01
114.41
99.76
84.52
68.33
51.26
33.76
16.41
-0.40
-16.59
-32.26
-47.37
-61.50
-73.90
-83.69
-90.26
-93.48
-93.78
-91.92
-88.65
-84.50
-79.66
-74.04
-67.50
-60.02
-51.90
-43.75
-36.32
-30.24
-25.80
-22.69
-20.02
-16.60
-11.35
-3.74
5.83
15.84
23.85
27.17
23.82
13.41
-2.51
-20.76
-37.61
-50.08
-56.91
-58.82
-57.99
-57.02
-57.98
-61.84
-68.42
-76.61
-84.60
-90.21
-91.18
-85.72
-73.05
-53.85
-30.14
-4.73
19.59
40.81
58.06
71.48
81.66
89.23
94.56
97.79
98.95
98.11
95.51
91.54
86.87
82.26
78.49
75.97
74.59
73.79
72.72
70.71
67.63
63.96
60.60
58.48
58.17
59.57
61.86
63.64
63.27
59.33
51.07
38.51
22.47
4.20
-14.83
-33.26
-49.86
-63.67
-74.16
-81.30
-85.72
-88.53
-91.03
-94.27
-98.74
-104.16
-109.65
-114.07
-116.38
-116.19
-113.80
-110.28
-107.05
-105.44
-106.19
-109.27
-113.96
-118.92
-122.61
-123.30
-119.64
-110.96
-97.70
-81.55
-64.96
-50.21
-38.43
-29.22
-21.00
-12.18
-1.90
9.57
21.53
33.65
46.19
60.05
75.43
91.30
105.43
115.21
118.79
115.51
105.88
91.18
73.18
54.06
36.30
22.16
12.75
7.31
3.16
-3.22
-14.66
-31.90
-53.08
-74.32
-90.91
-98.64
-94.72
-78.33
-50.83
-15.67
22.21
57.41
85.50
104.18
113.22
114.27
109.67
101.60
91.76
81.22
70.73
60.79
51.58
42.91
34.43
25.98
18.07
12.05
9.76
12.80
21.68
35.38
51.44
66.73
78.37
84.58
85.00
80.54
72.92
64.07
55.68
48.84
44.00
40.99
39.11
37.47
35.18
31.73
27.07
21.52
15.51
9.37
3.17
-3.10
-9.37
-15.36
-20.71
-25.21
-29.02
-32.63
-36.60
-41.22
-46.33
-51.41
-55.93
-59.67
-62.77
-65.57
-68.22
-70.39
-71.37
-70.36
-66.82
-60.75
-52.70
-43.50
-34.01
-24.95
-16.83
-9.97
-4.57
-0.66
1.90
3.39
4.16
4.50
4.55
4.30
3.67
2.64
1.28
-0.28
-1.89
-3.46
-4.97
-6.49
-8.09
-9.87
-11.95
-14.46
-17.53
-21.23
-25.35
-29.36
-32.40
-33.53
-32.05
-27.83
-21.38
-13.74
-6.08
0.65
5.95
9.76
12.31
13.87
14.61
14.59
13.83
12.42
10.58
8.60
6.80
5.38
4.38
3.69
3.12
2.48
1.69
0.76
-0.25
-1.38
-2.83
-4.91
-7.92
-11.86
-16.35
-20.62
-23.70
-24.75
-23.33
-19.48
-13.74
-6.89
0.21
6.83
12.43
16.69
19.49
20.87
21.04
20.27
18.91
17.33
15.96
15.13
15.04
15.61
16.45
16.99
16.70
15.26
12.74
9.45
5.76
1.86
-2.35
-7.09
-12.49
-18.34
-23.95
-28.36
-30.57
-29.88
-26.13
-19.75
-11.62
-2.81
5.72
13.24
19.39
24.03
27.18
28.82
28.94
27.59
24.91
21.27
17.12
12.96
9.14
5.81
2.94
0.42
-1.78
-3.55
-4.67
-4.95
-4.38
-3.17
-1.60
0.27
2.82
6.91
13.41
22.72
34.27
46.60
57.69
65.72
69.61
69.31
65.65
59.74
52.73
45.48
38.48
32.02
26.11
20.56
15.06
9.26
3.09
-3.23
-9.22
-14.29
-18.16
-20.80
-22.53
-23.70
-24.74
-26.19
-28.54
-32.06
-36.44
-40.59
-42.94
-42.08
-37.66
-30.83
-23.86
-18.99
-17.22
-17.63
-17.75
-14.89
-7.52
3.96
17.35
29.77
38.67
42.61
41.46
35.87
26.94
15.65
2.90
-10.26
-22.37
-31.49
-35.92
-35.09
-30.13
-23.76
-19.03
-17.90
-20.25
-24.13
-26.96
-27.03
-24.31
-20.07
-15.79
-12.07
-8.40
-3.71
2.84
11.26
20.88
30.81
40.34
48.92
55.94
60.62
62.20
60.26
54.99
47.09
37.60
27.49
17.49
8.10
-0.35
-7.52
-13.13
-17.10
-19.58
-21.01
-21.96
-22.98
-24.53
-26.78
-29.75
-33.21
-36.88
-40.30
-42.98
-44.41
-44.16
-42.06
-38.19
-33.02
-27.29
-21.89
-17.65
-15.20
-14.86
-16.64
-20.26
-25.25
-31.06
-37.12
-42.94
-48.18
-52.68
-56.54
-60.07
-63.81
-68.27
-73.66
-79.50
-84.51
-86.82
-84.48
-76.27
-62.08
-43.17
-21.59
0.41
21.09
39.58
55.70
69.71
81.86
92.21
100.63
106.96
111.09
113.05
112.93
110.84
106.92
101.28
94.08
85.57
76.15
66.36
56.80
48.01
40.32
33.79
28.25
23.39
18.87
14.40
9.75
4.78
-0.48
-5.94
-11.32
-16.28
-20.44
-23.41
-24.92
-24.75
-22.86
-19.36
-14.63
-9.25
-3.98
0.49
3.61
5.20
5.32
4.32
2.58
0.46
-1.79
-3.97
-5.91
-7.40
-8.23
-8.28
-7.58
-6.29
-4.67
-2.93
-1.19
0.41
1.65
2.16
1.53
-0.47
-3.68
-7.45
-10.84
-12.92
-13.07
-11.26
-7.93
-3.83
0.22
3.58
5.82
6.80
6.58
5.43
3.63
1.45
-0.97
-3.55
-6.17
-8.63
-10.63
-11.85
-12.19
-11.71
-10.69
-9.47
-8.31
-7.39
-6.86
-6.90
-7.71
-9.28
-11.26
-12.93
-13.43
-12.10
-8.85
-4.16
1.10
6.04
10.05
12.81
14.21
14.20
12.70
9.70
5.36
0.09
-5.50
-10.83
-15.36
-18.82
-21.11
-22.37
-22.93
-23.20
-23.52
-24.12
-24.97
-25.85
-26.50
-26.67
-26.15
-24.77
-22.34
-18.60
-13.39
-6.76
0.90
8.89
16.29
22.24
26.14
27.76
27.23
24.96
21.48
17.36
13.00
8.69
4.63
1.00
-1.93
-3.83
-4.46
-3.78
-2.12
-0.06
1.72
2.80
3.05
2.72
2.20
1.81
1.79
2.28
3.55
6.04
10.15
16.03
23.36
31.40
39.19
45.95
51.32
55.41
58.58
61.22
63.55
65.55
67.04
67.82
67.84
67.18
66.12
65.02
64.21
63.94
64.29
65.23
66.69
68.77
71.72
75.80
80.91
86.27
90.61
92.59
91.48
87.54
81.79
75.45
69.12
62.56
54.85
45.03
32.63
17.65
0.37
-19.16
-41.28
-66.31
-94.14
-123.79
-153.46
-180.83
-203.35
-218.57
-224.40
-219.59
-204.25
-180.21
-150.95
-120.83
-93.96
-72.87
-57.80
-46.89
-37.20
-26.03
-12.06
4.24
20.98
35.49
45.04
47.18
40.07
22.93
-3.31
-35.54
-68.65
-96.69
-114.75
-120.73
-116.02
-104.69
-91.65
-80.69
-73.47
-69.80
-68.69
-69.80
-73.78
-81.98
-95.17
-112.35
-130.34
-144.42
-150.04
-144.54
-128.15
-103.73
-75.26
-46.05
-17.65
10.18
38.21
66.48
93.50
116.50
132.68
140.42
140.21
134.42
126.40
119.31
115.02
113.96
115.15
117.02
118.15
117.72
115.55
111.63
105.65
96.80
83.91
66.19
43.88
18.60
-6.80
-28.98
-45.11
-53.78
-55.29
-51.46
-44.83
-37.65
-31.30
-26.16
-21.95
-18.34
-15.28
-13.13
-12.34
-13.11
-15.22
-18.03
-21.01
-23.83
-26.54
-29.22
-31.75
-33.45
-33.28
-30.20
-23.59
-13.68
-1.75
10.08
19.41
24.51
25.08
22.41
18.94
17.22
18.87
24.02
31.41
38.97
44.67
47.02
45.46
40.35
33.02
25.66
20.99
21.43
28.19
40.56
56.08
71.42
83.64
91.09
93.57
91.98
87.53
81.16
73.35
64.11
53.33
40.94
26.95
11.46
-5.24
-22.58
-39.65
-55.24
-67.99
-76.86
-81.36
-81.78
-79.10
-74.57
-69.34
-64.07
-58.97
-54.17
-50.04
-47.33
-46.72
-48.17
-50.63
-52.18
-51.04
-46.48
-39.33
-31.71
-26.12
-24.34
-26.78
-32.74
-40.95
-50.07
-58.93
-66.42
-71.55
-73.80
-73.60
-72.31
-71.51
-72.31
-75.04
-79.33
-84.65
-90.41
-96.04
-100.43
-101.86
-98.51
-89.51
-75.71
-59.54
-43.84
-30.22
-18.16
-5.36
10.98
32.63
59.69
90.78
123.61
155.41
183.10
203.38
213.65
212.81
201.98
184.24
163.38
142.47
122.76
104.09
85.85
67.97
51.23
36.54
24.31
14.06
4.91
-3.57
-10.83
-15.50
-16.31
-12.99
-6.64
0.63
6.48
9.12
7.81
2.88
-4.44
-12.49
-19.58
-24.50
-26.69
-26.31
-24.01
-20.58
-16.72
-12.92
-9.50
-6.72
-4.87
-4.23
-4.94
-6.93
-9.90
-13.38
-16.86
-19.94
-22.43
-24.30
-25.65
-26.62
-27.35
-28.02
-28.75
-29.72
-30.99
-32.45
-33.73
-34.22
-33.32
-30.65
-26.23
-20.52
-14.22
-8.07
-2.58
1.94
5.36
7.59
8.48
7.88
5.74
2.19
-2.38
-7.34
-11.89
-15.32
-17.10
-17.03
-15.35
-12.60
-9.53
-6.94
-5.49
-5.58
-7.18
-9.81
-12.55
-14.25
-13.86
-10.82
-5.20
2.33
10.76
19.08
26.53
32.58
36.85
39.04
38.97
36.68
32.48
26.84
20.19
12.74
4.58
-4.00
-12.33
-19.34
-24.02
-26.01
-25.91
-25.06
-24.97
-26.54
-29.64
-33.34
-36.38
-37.90
-37.61
-35.75
-32.69
-28.69
-23.99
-18.92
-14.16
-10.70
-9.46
-11.10
-15.75
-22.95
-31.92
-41.76
-51.77
-61.55
-71.07
-80.49
-89.97
-99.36
-108.07
-115.09
-119.24
-119.47
-115.15
-106.17
-93.02
-76.62
-58.22
-39.07
-20.22
-2.19
15.08
32.08
49.27
66.72
83.74
99.14
111.61
120.30
125.11
126.55
125.41
122.29
117.43
110.94
103.01
94.19
85.33
77.36
70.94
66.22
62.89
60.42
58.30
56.29
54.36
52.58
50.94
49.24
47.09
44.16
40.37
36.04
31.84
28.65
27.19
27.82
30.39
34.32
38.80
43.10
46.67
49.20
50.50
50.37
48.51
44.71
38.93
31.53
23.26
15.08
7.90
2.34
-1.42
-3.54
-4.38
-4.21
-3.25
-1.54
0.81
3.63
6.64
9.45
11.73
13.22
13.74
13.20
11.60
9.15
6.28
3.73
2.33
2.78
5.36
9.81
15.44
21.33
26.70
31.08
34.36
36.63
38.08
38.83
38.96
38.46
37.37
35.83
34.15
32.86
32.42
32.95
33.89
34.31
33.09
29.53
23.67
15.86
6.45
-4.77
-18.31
-34.26
-51.72
-68.57
-82.17
-90.47
-92.93
-90.62
-85.37
-78.71
-71.17
-62.35
-51.90
-40.01
-27.68
-16.20
-6.27
2.23
10.25
18.57
27.31
35.70
42.65
47.58
50.69
53.29
56.67
61.61
67.82
73.80
77.71
78.00
74.34
67.77
60.23
53.70
49.27
46.66
44.51
40.98
34.85
25.94
15.17
4.21
-5.63
-13.50
-19.33
-23.38
-25.96
-27.45
-28.22
-29.18
-31.52
-36.60
-45.21
-56.99
-70.39
-82.87
-92.00
-96.12
-94.73
-88.34
-77.80
-63.94
-47.41
-29.06
-10.70
4.96
14.88
16.86
10.90
-0.68
-13.91
-24.98
-31.77
-34.45
-35.13
-36.23
-39.42
-44.67
-50.92
-56.97
-62.22
-66.86
-71.08
-74.31
-75.02
-71.39
-62.54
-49.25
-34.07
-20.23
-10.22
-5.08
-4.08
-5.51
-7.70
-9.36
-10.23
-10.50
-10.75
-11.69
-13.83
-17.43
-22.12
-27.08
-30.93
-32.47
-31.07
-26.74
-20.31
-12.67
-4.63
3.53
12.05
21.31
31.24
41.08
49.43
54.77
56.20
53.97
49.36
44.14
39.86
36.70
34.06
30.87
26.51
21.52
16.95
13.91
12.47
11.57
9.48
4.89
-2.33
-11.19
-19.62
-25.87
-28.91
-28.76
-26.42
-23.02
-19.44
-15.89
-11.99
-7.24
-1.45
5.06
11.40
16.62
19.93
21.15
20.75
19.58
18.70
18.37
18.40
18.02
16.54
13.91
10.56
7.41
5.00
3.31
1.60
-0.99
-5.02
-10.34
-15.92
-20.55
-23.23
-23.64
-22.33
-20.21
-18.08
-16.19
-13.96
-10.69
-5.83
0.49
7.32
13.52
17.95
20.12
20.15
18.60
16.28
13.68
11.27
9.09
7.26
5.78
4.54
3.43
2.12
0.40
-1.85
-4.41
-6.95
-9.12
-10.72
-11.96
-13.18
-14.60
-16.36
-18.02
-18.88
-18.25
-15.37
-10.29
-3.49
3.87
10.27
14.42
15.60
14.13
11.05
7.97
6.11
5.81
6.67
7.45
7.21
5.53
2.91
0.56
-0.39
0.53
2.76
4.99
5.77
4.19
0.42
-4.65
-9.78
-13.84
-16.83
-19.11
-21.22
-23.20
-24.10
-22.89
-18.75
-12.11
-4.52
1.95
5.79
6.72
5.57
4.20
4.02
5.61
8.47
11.22
12.61
12.00
9.70
6.80
4.50
3.40
3.36
3.52
2.98
1.10
-1.96
-5.49
-8.54
-10.30
-11.05
-11.63
-13.35
-17.07
-22.60
-28.87
-34.16
-37.24
-37.74
-36.47
-34.72
-33.58
-33.47
-33.62
-32.98
-30.67
-26.62
-21.88
-17.87
-15.76
-15.73
-16.70
-17.09
-15.37
-10.91
-4.17
3.73
11.29
17.28
20.79
21.36
19.03
14.03
7.24
-0.36
-7.44
-13.06
-16.88
-19.22
-20.99
-23.14
-26.28
-30.33
-34.67
-38.46
-40.82
-41.32
-39.80
-36.23
-30.88
-23.95
-15.74
-6.67
3.14
13.22
23.20
32.32
39.52
43.76
44.48
42.10
37.96
34.20
32.52
33.55
36.70
40.23
42.63
43.07
41.94
40.52
40.00
40.78
42.19
42.87
41.61
37.89
32.35
26.29
21.11
17.91
16.46
15.96
15.17
13.08
9.74
5.73
2.16
-0.34
-1.83
-3.08
-4.80
-6.93
-8.65
-8.11
-3.89
4.42
15.80
27.94
38.41
45.49
48.89
49.73
49.68
50.07
51.29
52.74
53.49
52.59
49.95
46.18
42.25
39.19
36.80
34.12
29.47
21.50
9.96
-4.25
-19.34
-33.86
-47.02
-59.02
-70.27
-80.68
-89.52
-95.43
-97.57
-96.17
-92.77
-89.57
-88.22
-88.82
-89.78
-88.29
-82.04
-70.20
-53.93
-35.84
-18.60
-4.06
7.53
17.05
25.77
34.72
43.90
52.77
60.16
65.15
66.92
64.97
59.31
50.32
39.13
27.33
16.82
9.13
4.87
3.69
4.28
5.12
5.16
3.68
0.69
-3.59
-8.94
-14.75
-20.66
-26.11
-30.89
-35.26
-39.80
-45.04
-50.70
-55.51
-57.23
-53.86
-44.67
-30.61
-14.37
1.24
14.17
24.04
31.85
38.89
45.81
52.16
56.87
59.10
58.77
56.84
54.47
52.45
50.98
48.97
45.26
38.93
29.98
19.71
9.82
2.02
-3.16
-6.42
-9.44
-13.82
-20.12
-27.70
-34.49
-38.41
-38.11
-33.64
-26.53
-18.80
-12.18
-7.19
-3.09
1.41
7.25
14.41
21.79
27.93
31.45
32.07
30.54
28.30
26.98
27.04
28.12
28.77
27.69
24.30
18.96
12.92
7.17
2.18
-2.52
-7.58
-13.28
-19.18
-24.08
-26.98
-27.62
-26.77
-25.93
-26.35
-28.29
-30.77
-31.83
-29.84
-24.10
-15.34
-5.34
4.08
11.49
16.47
19.23
20.34
20.36
19.43
17.76
15.32
12.66
10.29
8.64
7.83
7.37
6.56
4.77
1.88
-1.74
-5.42
-8.52
-10.87
-12.69
-14.30
-16.17
-18.35
-20.66
-22.78
-24.08
-24.43
-23.77
-22.60
-21.76
-22.03
-23.77
-26.33
-28.34
-27.87
-23.76
-16.17
-6.59
2.48
9.14
12.68
13.89
14.48
15.86
18.39
21.29
23.35
23.75
22.45
20.32
18.35
17.22
17.17
17.47
17.38
16.25
13.99
11.33
9.07
7.97
7.88
7.87
6.46
2.47
-4.34
-13.25
-22.28
-29.44
-33.20
-33.01
-29.56
-24.15
-18.18
-12.55
-7.36
-2.32
2.90
8.29
13.31
17.30
19.50
19.77
18.51
16.62
15.32
14.98
15.60
16.27
16.11
14.65
11.95
8.61
5.03
1.31
-2.92
-7.86
-13.20
-18.14
-21.44
-22.57
-21.88
-20.67
-20.69
-23.11
-27.98
-34.08
-39.29
-41.84
-40.78
-36.35
-29.68
-22.04
-14.46
-7.43
-1.23
3.81
7.18
8.13
6.31
1.90
-4.13
-10.30
-15.33
-18.56
-20.15
-20.84
-21.52
-23.08
-26.31
-31.73
-39.37
-48.44
-57.65
-65.57
-71.62
-76.25
-80.76
-86.81
-95.36
-106.73
-119.93
-132.73
-142.28
-145.90
-141.98
-131.08
-115.60
-98.67
-82.96
-69.00
-55.40
-39.99
-21.55
-0.63
20.85
40.58
57.44
71.57
84.06
95.88
107.23
117.90
127.67
137.22
147.59
159.57
172.38
183.50
189.46
187.27
175.98
156.83
132.54
106.30
80.56
56.43
34.73
16.00
1.26
-7.83
-10.58
-7.28
0.21
8.99
16.24
20.22
21.02
19.83
18.55
18.24
18.87
19.60
19.29
17.75
15.74
15.00
17.35
23.48
32.25
40.82
45.77
44.84
37.98
27.73
18.03
12.62
13.54
19.62
27.43
32.46
31.23
23.10
9.84
-4.67
-16.73
-23.94
-25.99
-24.36
-21.16
-18.80
-18.77
-21.84
-27.63
-34.72
-41.19
-44.68
-43.70
-37.86
-28.33
-17.49
-7.92
-1.51
1.19
1.19
-0.01
-0.79
-0.21
1.79
4.87
8.21
11.10
12.80
12.87
11.25
7.87
3.24
-2.17
-7.34
-11.33
-13.55
-13.88
-13.28
-13.05
-14.53
-17.88
-22.00
-24.93
-24.41
-19.40
-10.32
1.01
11.80
19.77
23.74
24.13
23.00
22.38
23.83
27.32
31.22
33.24
31.49
25.61
16.76
7.46
-0.03
-4.78
-7.21
-8.98
-11.31
-14.53
-17.80
-19.71
-19.64
-18.17
-16.96
-17.56
-20.28
-24.03
-26.43
-25.43
-20.11
-11.05
-0.74
8.19
13.53
14.66
12.84
10.10
8.66
9.45
11.99
14.46
14.87
12.01
5.92
-1.66
-8.53
-12.87
-14.01
-12.85
-11.00
-10.13
-11.05
-13.25
-15.73
-17.49
-18.16
-18.13
-17.93
-18.03
-18.09
-17.41
-15.08
-10.56
-4.57
1.77
6.76
9.47
10.09
9.58
9.42
10.16
11.44
11.85
10.27
6.46
1.41
-2.84
-4.69
-3.56
-0.39
2.73
3.80
1.70
-3.21
-8.96
-13.59
-15.57
-14.64
-11.77
-8.36
-5.77
-4.46
-4.32
-4.58
-4.43
-3.70
-2.25
-0.51
1.61
4.38
8.05
12.70
17.46
21.05
22.06
20.11
15.96
11.21
7.85
6.81
8.02
10.36
12.02
11.70
8.89
4.24
-0.32
-3.05
-2.69
0.51
4.76
7.58
6.87
2.11
-5.47
-12.99
-17.64
-18.04
-14.53
-9.22
-4.19
-0.49
2.36
5.95
11.43
18.56
25.52
30.03
30.70
27.69
22.99
18.89
17.06
17.80
19.44
19.86
17.10
10.44
0.98
-9.23
-17.58
-22.38
-23.24
-21.53
-19.53
-19.60
-23.25
-30.04
-38.17
-45.08
-48.61
-48.09
-44.24
-38.83
-33.51
-28.89
-24.72
-20.03
-14.05
-6.75
1.27
8.60
14.11
17.00
17.33
16.03
13.89
11.88
10.17
8.75
7.51
6.40
5.73
5.39
5.19
4.34
2.30
-0.98
-4.90
-8.17
-9.84
-9.65
-8.41
-7.74
-9.17
-13.37
-19.67
-25.89
-29.86
-29.78
-25.03
-16.29
-4.91
7.14
18.06
26.19
30.72
31.69
29.54
25.48
20.30
14.84
9.56
4.87
1.40
-0.44
-0.43
0.88
2.63
3.77
3.61
2.37
0.72
-0.33
-0.09
1.11
2.30
2.32
0.52
-2.24
-4.60
-4.97
-2.92
0.43
2.85
2.22
-2.08
-8.92
-15.33
-18.43
-16.95
-11.63
-5.17
-0.17
1.91
1.54
0.48
0.41
1.81
3.74
4.74
3.93
1.40
-1.42
-3.02
-2.34
0.82
5.13
8.96
10.58
9.04
4.74
-1.08
-6.48
-10.07
-11.39
-11.46
-12.01
-14.67
-20.13
-27.04
-32.98
-35.26
-32.30
-24.64
-14.55
-5.14
1.25
4.15
4.61
4.65
5.83
8.49
11.92
14.55
15.34
13.93
10.98
7.77
4.94
2.87
1.02
-1.12
-3.68
-6.35
-8.31
-9.32
-9.62
-10.36
-12.50
-16.45
-21.69
-26.70
-30.09
-30.91
-29.20
-25.89
-22.11
-18.70
-15.78
-12.49
-8.18
-2.37
4.79
12.45
19.66
25.28
28.51
28.72
26.12
21.49
15.78
10.27
5.43
1.51
-1.69
-4.35
-6.21
-7.01
-6.56
-5.30
-3.99
-3.54
-4.60
-6.86
-9.74
-12.28
-13.83
-14.57
-14.94
-15.37
-15.69
-14.63
-10.92
-3.71
6.41
17.37
26.28
30.74
29.91
24.68
17.68
11.62
8.00
6.85
6.58
5.63
3.18
-0.18
-2.85
-3.54
-1.98
0.73
3.02
3.75
2.71
1.04
0.08
0.87
3.61
6.94
9.19
8.63
4.55
-2.22
-9.74
-15.35
-17.21
-14.76
-9.38
-3.43
0.76
1.86
0.60
-1.22
-1.56
0.61
4.55
8.34
9.87
8.10
3.93
-0.70
-3.54
-3.38
-0.56
3.56
7.05
8.71
8.14
5.97
3.38
0.89
-1.25
-3.63
-6.74
-10.73
-15.16
-18.97
-21.50
-22.42
-22.27
-21.61
-20.68
-19.15
-15.96
-10.47
-2.74
5.99
13.60
18.03
18.19
14.54
9.20
4.40
2.04
2.81
6.13
10.79
15.24
18.33
19.13
17.57
14.11
9.32
4.08
-1.32
-6.60
-11.72
-16.54
-20.55
-23.39
-24.86
-25.30
-25.07
-24.41
-23.15
-20.49
-15.86
-9.08
-0.80
7.26
13.35
16.22
15.76
13.52
11.39
11.13
13.08
16.04
17.82
16.45
11.28
3.21
-5.21
-11.47
-14.24
-13.80
-12.09
-11.12
-12.09
-14.65
-17.28
-18.53
-17.89
-15.97
-13.90
-12.35
-11.20
-9.12
-4.83
2.43
12.42
23.26
32.78
38.92
40.69
38.72
34.59
30.41
27.49
26.02
24.82
22.32
17.44
10.25
2.50
-3.65
-6.46
-5.58
-2.42
0.75
1.79
-0.19
-4.28
-8.70
-11.65
-12.32
-11.27
-9.80
-9.48
-10.91
-13.73
-16.63
-17.87
-16.73
-13.16
-8.30
-3.41
0.63
3.64
6.17
8.51
10.53
11.30
10.03
6.59
1.82
-2.36
-4.33
-3.28
0.12
3.97
6.19
5.44
1.87
-2.75
-6.48
-7.75
-6.20
-2.76
1.16
4.06
5.00
3.51
-0.10
-5.22
-11.25
-17.35
-23.01
-27.47
-30.00
-29.97
-26.86
-20.87
-12.92
-4.57
2.58
7.39
9.52
9.76
9.17
8.80
9.17
9.72
9.62
8.14
5.29
2.34
0.74
1.67
4.95
8.92
11.12
9.50
3.55
-5.62
-15.18
-22.49
-26.21
-26.81
-26.44
-27.33
-30.82
-36.69
-43.33
-48.93
-52.26
-53.01
-51.54
-48.28
-43.60
-37.44
-30.01
-21.74
-13.17
-5.43
0.94
5.77
9.73
14.15
20.27
28.74
38.93
48.94
56.16
58.51
55.34
47.85
39.03
32.14
29.51
31.66
36.88
42.36
45.32
43.96
37.92
27.87
15.00
0.42
-14.88
-30.04
-44.42
-57.01
-66.87
-72.58
-72.49
-65.86
-52.84
-35.56
-17.77
-3.94
2.28
-0.74
-12.14
-29.11
-48.36
-66.72
-81.87
-92.27
-96.90
-95.82
-90.05
-81.23
-71.18
-60.97
-50.52
-39.04
-25.83
-11.23
3.46
16.54
27.24
36.12
44.20
51.85
57.54
58.74
53.80
43.31
30.78
20.85
17.07
19.83
26.40
32.52
34.98
33.52
30.63
30.01
34.11
42.63
53.03
62.04
67.47
69.18
68.21
66.10
63.87
61.83
60.12
58.85
58.44
59.02
60.07
60.39
58.70
54.35
47.62
39.80
32.15
25.53
19.99
14.94
9.80
4.19
-1.74
-7.43
-12.27
-15.79
-17.72
-17.98
-16.38
-12.93
-7.50
-0.32
8.11
17.18
25.57
32.16
35.76
35.62
31.96
25.69
18.55
12.02
7.09
3.47
0.24
-3.69
-9.03
-15.07
-20.54
-23.83
-24.02
-21.52
-17.81
-14.80
-13.91
-15.15
-17.63
-19.82
-20.60
-19.78
-17.84
-15.93
-14.69
-14.24
-13.87
-12.39
-9.34
-4.68
0.61
5.33
8.49
9.62
9.04
7.10
4.35
0.92
-2.85
-6.49
-9.45
-10.89
-10.56
-8.68
-5.88
-3.30
-1.88
-2.10
-3.83
-5.97
-7.43
-7.27
-5.48
-3.21
-2.21
-4.24
-9.82
-18.11
-26.67
-32.70
-34.50
-31.84
-26.38
-20.25
-15.07
-11.19
-7.76
-3.75
1.22
6.38
10.44
12.24
11.49
9.16
6.68
5.40
6.13
8.14
10.22
11.09
10.22
8.52
7.42
8.31
11.29
15.16
17.68
16.91
12.23
4.35
-4.56
-12.40
-17.91
-20.84
-21.95
-22.03
-21.53
-20.24
-17.55
-13.08
-6.87
0.46
8.03
15.01
20.61
24.62
27.00
28.10
28.67
28.81
28.49
27.09
23.95
19.02
12.91
6.99
2.28
-0.68
-2.59
-4.64
-7.91
-12.82
-18.39
-23.22
-25.97
-26.23
-24.90
-23.69
-24.16
-26.85
-30.66
-33.58
-33.42
-28.90
-20.31
-9.09
2.28
11.72
17.87
20.66
21.18
20.42
19.40
18.18
16.43
13.71
9.88
5.51
1.23
-2.20
-4.62
-6.12
-6.99
-7.53
-7.63
-7.25
-6.36
-5.02
-3.77
-3.19
-3.74
-5.54
-7.93
-10.11
-11.23
-11.09
-10.39
-10.30
-11.90
-15.12
-18.75
-20.45
-18.19
-11.53
-1.76
8.19
15.65
19.18
19.24
17.72
16.49
16.43
17.03
17.13
15.85
13.12
10.04
7.84
7.32
8.58
10.31
11.05
9.69
6.11
1.64
-2.03
-3.43
-2.51
-0.56
0.20
-2.16
-8.26
-17.44
-27.45
-35.93
-40.97
-41.60
-38.15
-31.65
-23.52
-15.07
-7.11
-0.05
6.12
11.56
16.40
20.65
23.93
26.10
27.10
27.33
27.74
28.64
30.07
31.29
31.25
29.48
26.16
22.41
19.18
17.14
15.75
13.89
10.41
4.70
-2.45
-9.55
-14.90
-17.48
-17.61
-16.77
-16.80
-19.03
-23.32
-28.36
-32.04
-32.51
-28.98
-21.73
-12.38
-2.68
5.77
12.24
16.97
20.26
22.59
23.83
23.63
21.66
17.92
13.12
8.09
3.77
0.57
-1.36
-2.19
-2.20
-1.36
0.24
2.52
5.30
7.93
9.72
10.15
9.08
7.35
5.89
5.67
6.78
8.36
8.93
7.04
2.25
-4.87
-12.59
-19.15
-23.67
-26.10
-27.37
-28.11
-28.33
-27.23
-23.66
-17.21
-8.50
0.74
8.63
13.91
16.25
16.58
16.08
15.80
16.42
17.44
18.25
18.12
16.74
14.78
13.16
12.97
14.54
17.37
20.05
21.04
19.47
15.26
9.76
4.57
1.04
-0.26
0.07
0.85
0.83
-0.69
-3.51
-6.90
-10.01
-12.33
-13.83
-14.66
-15.20
-15.28
-14.43
-11.83
-6.60
0.98
9.91
18.26
24.06
26.30
25.15
21.97
18.17
14.81
11.74
8.27
3.76
-1.90
-7.56
-11.78
-13.30
-11.84
-8.43
-4.87
-2.88
-3.30
-5.48
-8.00
-9.23
-8.30
-5.54
-2.11
0.20
0.14
-2.86
-8.28
-14.81
-21.28
-26.55
-30.24
-32.12
-32.12
-30.18
-26.16
-20.40
-13.52
-6.65
-0.67
3.90
7.03
9.29
11.10
12.69
14.10
14.88
14.80
13.84
12.34
11.28
11.39
13.18
16.31
19.65
21.69
21.07
17.46
11.48
4.88
-0.55
-3.93
-5.39
-6.29
-7.98
-11.20
-15.61
-20.04
-23.40
-25.26
-26.09
-26.61
-27.20
-27.58
-26.62
-23.31
-17.22
-8.60
0.97
9.82
16.38
19.77
20.38
19.16
17.58
16.55
16.34
16.24
15.25
12.71
8.47
3.75
0.00
-1.50
-0.32
2.68
5.87
7.57
6.90
4.23
0.84
-1.82
-2.91
-2.62
-1.88
-2.19
-4.40
-8.57
-13.69
-17.94
-20.13
-19.60
-16.89
-13.14
-9.29
-5.81
-2.35
1.33
5.29
8.73
10.72
10.61
8.38
5.19
2.30
0.79
0.91
1.91
2.66
2.28
0.68
-1.20
-2.26
-1.63
0.77
4.14
7.46
9.62
10.17
9.18
7.28
5.37
3.83
2.78
1.53
-0.57
-4.03
-8.75
-13.88
-18.24
-20.49
-19.82
-16.01
-9.66
-2.07
5.50
11.88
16.56
19.76
21.70
22.70
22.75
21.70
19.88
17.79
16.33
16.07
16.86
17.84
17.78
15.97
12.55
8.88
6.54
6.41
8.32
10.76
12.04
10.93
7.37
2.37
-2.82
-7.38
-11.41
-15.48
-20.00
-24.81
-28.73
-30.43
-28.93
-24.00
-17.02
-9.79
-4.18
-1.24
-0.55
-0.91
-0.82
0.43
2.46
3.64
2.04
-3.86
-14.53
-28.72
-44.27
-58.76
-70.43
-78.99
-85.37
-91.00
-96.85
-102.57
-106.58
-106.71
-101.42
-90.68
-76.01
-60.26
-45.93
-34.37
-25.05
-15.90
-5.14
8.20
23.12
37.52
49.27
57.25
61.89
64.27
65.43
65.43
63.75
59.84
53.86
47.22
41.55
38.15
37.14
37.34
37.06
35.06
31.24
26.79
23.31
22.02
23.09
25.47
27.59
27.79
25.28
20.14
13.41
6.64
1.00
-2.61
-4.13
-3.67
-1.49
2.11
6.83
11.98
16.66
19.91
21.21
20.71
19.01
17.17
15.92
15.60
16.17
17.00
17.59
17.52
16.65
15.48
14.47
14.05
14.07
13.70
11.77
7.28
0.12
-8.88
-17.93
-25.42
-30.65
-33.89
-36.36
-38.93
-41.64
-43.48
-42.90
-38.85
-31.43
-21.97
-12.38
-4.23
1.62
5.46
7.99
9.93
11.84
13.25
13.70
12.63
9.95
6.40
2.98
0.80
0.21
0.70
0.93
-0.45
-4.05
-9.58
-15.32
-19.47
-20.72
-18.90
-15.27
-11.69
-9.76
-10.01
-11.59
-12.81
-11.99
-8.20
-1.69
6.45
14.56
21.45
26.63
30.55
34.44
38.95
44.22
49.18
52.31
52.42
49.20
43.58
36.81
29.94
23.02
15.64
7.50
-1.08
-8.61
-13.64
-15.33
-14.17
-11.96
-10.87
-12.33
-16.37
-21.53
-26.00
-28.29
-27.95
-25.54
-21.94
-18.13
-14.53
-11.29
-8.25
-5.13
-2.15
0.54
2.42
3.29
3.16
2.23
0.88
-0.72
-2.43
-4.24
-5.93
-7.16
-7.67
-7.18
-5.90
-4.22
-2.55
-1.41
-0.93
-1.07
-1.60
-1.88
-1.54
-0.34
1.33
2.47
1.82
-1.55
-7.54
-14.96
-21.47
-24.87
-23.98
-19.06
-11.89
-4.49
1.64
6.20
9.97
13.90
18.29
22.44
25.01
24.86
21.63
16.28
10.47
5.94
3.96
4.22
5.66
6.68
6.08
3.88
0.90
-1.44
-2.35
-1.99
-1.69
-3.00
-6.84
-13.08
-20.07
-25.94
-29.26
-29.68
-28.20
-26.20
-24.73
-23.84
-22.49
-19.40
-13.74
-5.75
3.33
11.91
18.47
22.40
23.82
23.51
22.65
21.70
20.95
19.97
18.44
16.37
14.08
12.18
10.77
9.56
7.71
4.64
0.39
-4.25
-7.82
-9.30
-8.46
-6.15
-4.00
-3.58
-5.74
-10.26
-15.71
-20.42
-22.81
-21.93
-17.73
-10.75
-2.13
6.92
15.18
22.01
27.27
30.99
33.52
34.78
34.73
33.28
30.59
27.29
24.08
21.58
19.85
18.50
16.92
14.52
11.41
7.99
4.99
3.06
2.06
1.55
0.80
-0.67
-2.51
-4.19
-5.03
-5.08
-5.24
-6.89
-11.12
-17.89
-25.96
-32.74
-35.88
-34.20
-28.11
-19.72
-11.47
-5.10
-0.92
2.09
5.34
9.57
14.35
18.35
20.19
19.12
15.78
11.61
8.32
7.27
8.24
10.25
11.71
11.38
9.21
6.00
3.19
1.68
1.43
1.22
-0.43
-4.47
-10.82
-17.88
-23.71
-26.82
-26.91
-25.13
-23.30
-22.88
-24.12
-25.79
-26.02
-23.18
-16.80
-7.89
1.80
10.25
16.33
19.85
21.50
22.45
23.19
23.87
23.98
23.07
21.14
18.65
16.43
14.89
14.02
13.17
11.72
9.42
6.54
3.96
2.33
1.88
2.25
2.56
1.99
0.20
-2.56
-5.34
-7.44
-8.42
-8.42
-8.00
-7.65
-7.66
-7.84
-7.80
-6.82
-4.28
-0.12
5.58
12.08
18.73
25.02
30.87
36.78
43.14
49.86
55.83
59.32
58.64
53.09
43.69
32.76
23.11
16.94
14.88
16.40
20.29
25.26
30.37
34.34
35.68
32.71
24.19
9.87
-9.32
-31.69
-55.68
-79.52
-101.83
-121.29
-136.57
-147.03
-152.67
-154.28
-152.96
-149.49
-144.12
-136.80
-127.87
-118.13
-108.57
-100.05
-92.46
-84.92
-76.21
-65.34
-52.68
-39.61
-28.44
-21.59
-20.46
-24.69
-31.63
-36.91
-35.49
-23.76
-1.00
30.23
64.68
96.75
122.16
139.11
148.19
150.96
148.79
142.06
130.45
113.87
93.35
71.40
51.21
35.48
25.51
20.44
18.24
16.91
15.68
15.37
17.27
22.06
28.98
36.06
41.14
43.03
41.94
38.89
35.22
31.64
28.05
23.98
18.98
13.14
7.12
1.86
-1.78
-3.59
-4.04
-4.10
-4.83
-6.59
-8.90
-10.55
-10.17
-6.99
-1.16
6.11
13.07
18.11
20.39
20.13
18.32
16.20
14.72
14.25
14.70
15.83
17.67
20.48
24.66
30.27
36.82
43.38
48.84
52.51
54.41
55.22
55.92
57.24
59.30
61.67
63.63
64.66
64.72
64.27
64.15
65.21
67.97
72.40
77.74
82.51
84.63
82.00
73.13
57.74
37.06
13.46
-10.20
-31.48
-48.81
